timestamp,emg1,emg2,emg3,emg4,emg5,emg6,emg7,emg8
1482546750044908,-6,4,-16,-7,8,1,0,0
1482546750044908,-8,-12,23,42,0,1,0,-3
1482546750045914,2,1,9,-33,-1,3,0,0
1482546750045914,2,1,-11,-1,-2,-1,-1,-1
1482546750045914,2,-2,-9,-14,-2,-3,0,0
1482546750045914,2,8,3,-1,-9,-4,-1,0
1482546750049913,1,-8,0,24,10,1,-1,-1
1482546750049913,-3,-1,0,-25,-10,-2,-2,-1
1482546750055930,-5,-9,-2,0,3,-1,-3,-1
1482546750055930,10,8,2,0,8,10,8,3
1482546750064955,-7,5,2,-1,-4,-3,-1,-2
1482546750064955,-14,2,18,7,2,2,-2,-5
1482546750072928,3,-13,-30,-3,-7,-2,-3,-1
1482546750072928,-12,-8,5,-9,-5,-5,-4,-3
1482546750086019,3,1,0,4,-1,-1,-2,0
1482546750086019,7,1,-14,3,14,3,2,1
1482546750097999,3,7,30,3,-1,-1,1,-2
1482546750097999,-3,0,-22,-4,0,-1,-1,-2
1482546750110031,0,-2,-10,-3,2,1,-1,0
1482546750110031,1,-5,6,1,-3,-5,-1,-1
1482546750118029,4,2,5,-2,-5,-1,-1,1
1482546750118029,2,13,2,-4,7,2,-1,1
1482546750130590,-9,-12,-21,14,-2,-3,0,-1
1482546750130590,5,-14,-10,-33,-15,3,0,0
1482546750172644,5,1,29,13,0,0,-1,0
1482546750172644,11,-4,-60,-4,1,-4,-1,1
1482546750177649,-1,2,12,8,6,3,2,2
1482546750177649,-7,-1,-3,-1,-1,0,-3,-3
1482546750177649,-5,0,3,-14,-7,-4,-1,0
1482546750177649,14,4,31,9,-4,-2,-2,-2
1482546750178647,0,-3,11,-1,-2,-2,0,0
1482546750178647,4,-1,-39,-8,-2,0,0,0
1482546750183653,-4,-2,11,10,6,2,2,0
1482546750183653,-4,4,-17,-8,2,4,1,0
1482546750192657,0,-13,-21,-8,-7,-6,-5,-4
1482546750192657,0,9,18,1,-4,-2,-3,-1
1482546750198714,4,-2,-8,-3,-3,-2,-3,-3
1482546750198714,-4,-3,19,1,1,2,1,-1
1482546750215244,2,4,-5,4,3,-1,1,1
1482546750215244,0,-3,3,-1,-4,-2,-1,-1
1482546750221271,-7,8,8,-1,2,1,-2,0
1482546750221271,-23,-22,-3,2,-2,-1,-1,-3
1482546750245285,9,9,6,-2,-1,-1,-1,2
1482546750245285,27,-12,6,0,4,-1,1,0
1482546750246286,-33,-1,4,0,2,-3,0,-2
1482546750246286,-4,4,10,-1,-3,-2,-1,-3
1482546750259349,-6,1,-21,-5,0,-2,-3,-2
1482546750259349,12,6,40,17,5,0,0,2
1482546750260348,-3,-9,-48,-33,-11,1,1,0
1482546750260348,-2,-1,-16,-1,-4,-3,-4,-1
1482546750281364,0,3,16,17,3,-2,-1,0
1482546750281364,-14,0,18,-13,-1,4,1,-3
1482546750282311,12,-7,-37,-3,2,-1,-2,-1
1482546750282311,5,5,-12,1,-3,-4,-3,1
1482546750304429,-2,3,-24,-12,-5,-3,-1,-3
1482546750304429,-7,11,32,11,-2,-4,-2,0
1482546750305455,1,0,-3,9,-3,-3,2,1
1482546750305455,7,-4,31,16,-5,-3,1,1
1482546750319459,19,9,5,-7,18,7,3,0
1482546750319459,-42,-13,-32,-7,-5,-2,0,-3
1482546750319459,-6,-6,23,5,-1,-2,-3,-2
1482546750319459,0,0,-8,-9,-2,-2,-2,-1
1482546750349690,-6,-2,22,7,-5,-2,-2,-2
1482546750349690,6,4,16,0,-1,0,0,1
1482546750350674,8,-4,-60,-14,-1,-1,1,0
1482546750350674,0,8,26,12,5,0,0,1
1482546750363700,0,-6,-5,-10,-4,-2,0,-1
1482546750363700,-10,-1,-14,15,-3,0,3,-3
1482546750364684,7,11,24,-7,2,-1,-1,-1
1482546750364684,-3,-10,-19,0,1,3,2,-2
1482546750378692,0,6,-21,-12,-5,-3,-1,-3
1482546750378692,9,-7,33,-15,1,-3,-1,0
1482546750379694,0,-2,-48,6,-1,1,0,-3
1482546750379694,-7,-16,21,11,3,-4,-4,-3
1482546750401720,-6,-16,-50,-1,-3,1,-1,1
1482546750401720,3,5,10,1,1,0,-1,-1
1482546750402721,7,5,42,6,-2,0,-2,-2
1482546750402721,4,7,-8,-11,-1,1,0,1
1482546750432820,-4,-2,15,6,8,2,1,-1
1482546750432820,1,-3,-15,-6,-2,-1,-2,1
1482546750432820,5,11,24,5,-9,-2,-2,0
1482546750432820,-20,-13,-18,-6,16,-4,0,-4
1482546750438825,-5,-4,15,-29,-11,3,2,0
1482546750438825,8,3,-16,-5,2,3,1,0
1482546750439807,-11,-8,-18,-6,-1,-4,-2,0
1482546750439807,7,6,1,-3,-8,-2,-2,0
1482546750461841,-5,-8,28,19,-3,-3,-2,-3
1482546750461841,-12,-5,-61,-8,4,0,2,-1
1482546750462841,8,3,24,5,-2,-2,1,-1
1482546750462841,0,2,7,4,-2,0,1,0
1482546750483857,-1,-9,6,2,1,-1,-1,1
1482546750483857,6,0,-27,-1,-6,-5,-5,-1
1482546750484841,-1,-7,-17,-2,1,0,-2,-1
1482546750484841,1,0,-1,-23,-1,2,2,1
1482546750498868,-3,1,-25,10,-3,-4,-2,-2
1482546750498868,1,13,68,19,3,-3,1,-1
1482546750499850,-4,-26,-80,-23,3,4,2,-2
1482546750499850,2,12,29,0,-4,0,-1,-2
1482546750522082,0,1,-8,-9,-3,2,-2,1
1482546750522082,-2,-9,4,4,0,0,-1,-3
1482546750522082,3,11,33,11,2,-3,-2,-1
1482546750522082,5,4,-11,-2,-5,0,0,1
1482546750552085,-2,-5,-6,1,-1,-4,-3,0
1482546750552085,-1,3,7,6,5,2,0,-1
1482546750553081,-6,3,10,-12,-1,-1,0,0
1482546750553081,15,4,-10,0,-1,0,0,-1
1482546750558076,-3,1,30,2,-8,-3,1,-1
1482546750558076,-5,-8,-37,-14,-1,-5,-3,-3
1482546750566212,0,8,11,12,12,7,2,0
1482546750566212,-3,-2,-4,2,0,-1,0,-1
1482546750583171,3,-3,4,-1,0,0,0,0
1482546750583171,-2,2,4,-3,-3,-3,-2,-2
1482546750584201,-2,-7,5,-12,-17,-4,-4,-3
1482546750584201,12,12,7,-3,4,-2,1,0
1482546750605722,-25,-5,3,8,8,1,2,-1
1482546750605722,-2,-11,-14,-10,-5,1,-3,1
1482546750606722,1,-2,15,9,3,-1,-2,-2
1482546750606722,-7,0,-6,2,-3,0,-2,2
1482546750627292,8,1,1,-7,-5,-3,-4,-4
1482546750627292,6,2,-8,-1,-3,-4,-1,-2
1482546750627292,-1,5,24,9,1,2,2,5
1482546750627292,-3,-7,-29,-8,-5,-1,-1,-2
1482546750641337,2,5,-8,-3,2,0,-9,0
1482546750641337,-4,-8,7,0,0,2,18,8
1482546750642284,4,-2,12,2,-2,-3,-10,-7
1482546750642284,-8,-3,11,6,2,1,-3,-2
1482546750664320,3,5,1,8,0,-2,2,-2
1482546750664320,5,22,-8,-37,-11,0,-9,-5
1482546750665354,9,5,-20,-4,-5,-5,1,4
1482546750665354,1,20,17,0,6,2,-2,0
1482546750678312,4,15,14,6,0,0,-3,-2
1482546750678312,2,2,10,10,4,-1,-2,-1
1482546750694342,-10,1,-6,0,0,-5,-3,-7
1482546750694342,4,-9,-4,-7,-7,-3,-3,3
1482546750701380,-13,-5,16,-2,-5,-2,0,-11
1482546750701380,13,-5,-19,2,1,1,0,-1
1482546750702326,-6,-4,9,6,3,0,0,1
1482546750702326,-4,-11,6,1,0,-2,3,-2
1482546750724443,-5,-9,29,10,0,0,-8,2
1482546750724443,-11,-10,-72,-27,-2,0,7,1
1482546750725457,15,-11,-5,0,1,0,1,1
1482546750725457,-5,-4,9,-4,-3,3,2,3
1482546750738504,-3,15,14,13,2,-10,-2,-6
1482546750738504,-4,-6,-4,-6,-7,2,-4,-3
1482546750746481,-6,-10,7,2,5,4,-12,-5
1482546750746481,6,-7,-7,2,-1,-1,14,0
1482546750761524,14,5,-19,-18,-4,-1,-39,12
1482546750761524,10,-1,17,20,2,-2,58,17
1482546750762481,2,-11,-15,-7,0,0,9,-6
1482546750762481,-13,37,20,6,-1,-2,-23,-13
1482546750784500,-12,-3,-22,-1,-3,1,-5,-15
1482546750784500,4,-13,10,4,-2,-1,16,22
1482546750784500,15,4,8,4,3,-7,-106,-5
1482546750784500,-17,-23,-8,-7,-1,8,115,88
1482546750800510,0,13,-13,-9,-2,-3,13,-28
1482546750800510,-25,6,0,-4,-2,1,-46,-27
1482546750806034,11,11,3,-3,-5,-5,78,12
1482546750806034,-7,-11,1,7,4,-2,-128,-55
1482546750829682,5,-8,-14,2,-2,4,89,1
1482546750829682,6,-5,-1,-7,-7,-19,29,41
1482546750830676,9,13,20,-3,2,3,12,4
1482546750830676,7,12,20,23,1,6,-29,-23
1482546750843779,-2,-23,-65,-54,-10,-7,15,5
1482546750843779,4,14,8,10,6,-4,-59,-31
1482546750844724,-11,7,1,25,6,5,-3,2
1482546750844724,19,-1,2,3,2,1,21,4
1482546750866794,-23,-62,-53,-55,-6,6,-39,2
1482546750866794,-1,-9,29,-2,-7,-5,0,-19
1482546750867792,1,10,-6,7,-6,-7,-55,10
1482546750867792,4,-1,-5,-4,-3,1,84,25
1482546750881762,1,9,8,24,6,-2,7,27
1482546750881762,-1,-2,-10,-10,2,3,-7,-31
1482546750882752,-7,-11,12,6,-2,4,14,-15
1482546750882752,2,3,-18,-10,-8,-12,-48,-32
1482546750903795,22,13,22,14,5,1,3,31
1482546750903795,-12,-13,8,5,2,0,9,10
1482546750904796,-5,6,-3,-5,-3,-5,7,-29
1482546750904796,-6,-9,0,-3,-6,-5,23,8
1482546750918809,-1,-6,-3,5,4,2,-12,-15
1482546750918809,11,4,2,2,-3,5,-21,-16
1482546750926317,-34,-6,7,7,1,1,-4,-13
1482546750926317,11,-10,-12,-6,-3,-18,-4,21
1482546750941314,-14,1,29,2,-1,0,-46,-25
1482546750941314,0,6,-24,-2,-2,0,14,1
1482546750942312,11,9,17,-5,-3,2,-40,-23
1482546750942312,2,11,2,-11,4,2,9,54
1482546750964324,5,4,52,20,-3,-2,86,32
1482546750964324,-8,-1,-12,-6,3,1,-17,-10
1482546750965330,2,20,17,-2,1,3,30,16
1482546750965330,-14,8,9,14,-1,0,-31,-37
1482546750988398,1,-6,-3,29,5,4,37,18
1482546750988398,6,-26,-52,-29,0,7,4,3
1482546750989370,11,-2,0,-22,-2,-2,11,79
1482546750989370,-19,-5,-2,-11,-8,0,18,-5
1482546751001352,-14,2,-12,-13,-7,-6,-21,-6
1482546751001352,7,3,30,35,4,4,-5,-10
1482546751002357,4,-16,-5,3,1,-8,-32,-39
1482546751002357,11,-15,-50,1,-1,-3,4,13
1482546751024045,-3,-14,-67,-44,3,-1,-87,4
1482546751024045,-3,6,65,44,-4,-2,24,15
1482546751025029,-9,-7,-10,-66,-4,3,56,-3
1482546751025029,0,-1,-6,-15,-9,-7,-36,-1
1482546751047047,2,15,37,-3,-5,-4,-21,-33
1482546751047047,-3,8,8,15,8,5,0,2
1482546751047047,-2,-3,-12,30,-1,-3,-8,-9
1482546751047047,3,3,46,22,6,6,21,-21
1482546751062121,10,6,-10,5,-3,-1,-16,5
1482546751062121,0,-2,-7,0,3,-1,33,30
1482546751063084,-9,-9,15,-5,-6,-3,20,-18
1482546751063084,-1,-2,-33,-21,-5,-2,-31,-28
1482546751084253,5,8,11,7,-1,-2,-9,-5
1482546751084253,-11,-2,-12,-2,-6,-3,-15,-9
1482546751085214,6,-11,-24,6,-2,-4,-26,-30
1482546751085214,-5,-4,4,-1,1,3,24,25
1482546751106792,10,11,8,8,2,6,19,3
1482546751106792,19,8,6,-6,-4,-7,-28,-21
1482546751107790,-15,-2,-11,14,7,-3,-50,37
1482546751107790,-6,-9,2,-7,9,10,12,-26
1482546751120802,5,14,8,7,0,-2,-17,-1
1482546751120802,2,3,-32,-16,-4,-3,-3,13
1482546751122204,-2,-1,32,4,-8,-3,-2,-14
1482546751122204,5,-7,11,47,5,-4,-29,-48
1482546751143233,-2,4,-27,8,11,5,-25,-27
1482546751143233,-8,-16,-40,-81,-21,-6,68,24
1482546751152223,-14,-5,26,28,-5,0,-27,6
1482546751152223,-4,0,-20,-17,-3,-8,18,-18
1482546751166252,15,11,63,82,6,1,30,12
1482546751166252,-10,-8,-8,27,4,-2,-42,-59
1482546751167248,-1,18,-22,-54,-5,0,15,3
1482546751167248,-2,1,34,-15,-5,-3,-7,4
1482546751189268,-25,-34,-75,-70,-7,-5,-27,-19
1482546751189268,-1,7,52,20,5,1,-26,28
1482546751196269,14,4,11,26,3,4,-12,-33
1482546751196269,-10,-3,1,8,-4,-10,-49,-23
1482546751203316,6,7,4,-10,-1,3,-30,5
1482546751203316,10,1,11,6,3,2,-40,14
1482546751212329,7,25,2,7,4,5,54,4
1482546751212329,-16,-4,-14,-12,-2,-6,-35,10
1482546751226892,-9,-11,18,-3,-6,-2,48,16
1482546751226892,13,1,-8,7,4,19,13,24
1482546751227891,-4,-23,-7,-2,-11,-19,-44,-23
1482546751227891,-3,13,-10,-35,-3,-23,-43,-57
1482546751250081,-5,8,7,17,-3,-1,26,15
1482546751250081,-5,3,37,30,9,10,-65,-44
1482546751251055,7,-5,-51,-13,9,-2,2,23
1482546751251055,6,-3,-60,-43,-15,5,83,29
1482546751264064,-27,-36,-15,5,-21,-19,-46,-22
1482546751264064,-5,3,38,7,6,-3,-47,-34
1482546751272096,3,-15,-23,-19,1,12,-1,9
1482546751272096,0,5,73,76,-3,0,-3,13
1482546751287113,14,18,0,-2,8,3,-7,-17
1482546751287113,1,-1,-11,1,10,3,52,11
1482546751288051,3,7,-6,52,16,9,24,19
1482546751288051,8,2,-45,15,17,14,-7,3
1482546751310189,-5,-16,-26,-88,-30,6,62,9
1482546751310189,-6,-3,11,73,-12,-15,-25,-15
1482546751311130,-1,1,13,1,-1,2,49,10
1482546751311130,5,2,14,42,4,-3,-25,6
1482546751323696,11,7,6,19,17,8,-3,39
1482546751323696,-4,-2,-38,-52,-3,-7,-33,-52
1482546751331701,-4,-5,-8,-16,-10,-3,2,1
1482546751331701,2,-1,-3,-23,3,17,42,14
1482546751346701,7,4,16,12,5,5,20,1
1482546751346701,-4,6,-2,-24,-9,-8,-5,9
1482546751347702,-6,-6,3,10,-5,-4,-11,-3
1482546751347702,-1,0,6,-3,1,0,-22,3
1482546751369739,11,34,13,-11,1,-5,-12,12
1482546751369739,5,0,-15,1,-2,-1,40,9
1482546751370714,-6,-7,-5,-4,-2,-1,-16,-5
1482546751370714,-1,-9,-7,-14,-2,-1,-7,-6
1482546751383727,-6,-7,8,26,3,-4,0,-3
1482546751383727,2,2,-4,-5,4,2,-26,-3
1482546751391727,-2,-3,-2,-9,-7,2,101,81
1482546751391727,-1,0,3,-5,-1,-2,-29,-7
1482546751406727,5,-1,-9,11,-5,-3,82,70
1482546751406727,-2,3,8,-6,-1,-4,9,18
1482546751407729,-2,-6,4,-3,0,-2,-58,-55
1482546751407729,19,-12,-9,-4,-6,-1,39,1
1482546751429386,-52,-7,-5,5,-5,-13,-41,-42
1482546751429386,-12,4,2,-11,-4,-6,0,-12
1482546751430389,-7,2,11,-2,-5,-7,0,-21
1482546751430389,22,3,3,-3,2,6,-3,4
1482546751453438,8,-5,4,9,7,4,-42,-37
1482546751453438,-1,-3,-6,-4,-4,-4,38,20
1482546751454439,-3,-10,-8,0,-4,-6,-24,-18
1482546751454439,-16,-4,1,0,3,6,14,7
1482546751466449,12,4,35,1,-2,6,47,16
1482546751466449,-7,-4,-16,11,1,-16,-51,-3
1482546751467458,11,5,-14,-13,-1,-1,-30,3
1482546751467458,-8,-2,-11,-10,-4,-4,-3,-15
1482546751489482,0,29,26,11,4,-1,-52,-46
1482546751489482,12,1,-2,-1,-4,5,-9,-3
1482546751490476,-5,-6,-5,16,3,0,14,14
1482546751490476,-9,-17,4,-15,-5,-5,12,7
1482546751512607,2,-1,-1,-2,-3,-3,-38,-12
1482546751512607,2,-6,-7,-6,-2,1,0,-7
1482546751513587,1,-7,-6,4,2,1,22,6
1482546751513587,-4,15,1,5,1,0,-84,-5
1482546751526677,11,-10,-14,-3,0,1,77,84
1482546751526677,-4,3,-10,-5,-1,4,43,-18
1482546751527652,0,-15,0,1,-2,1,12,-8
1482546751527652,-13,-10,16,7,2,1,-6,21
1482546751549653,11,-5,-25,-6,-6,-6,18,-34
1482546751549653,-12,-12,-4,-3,-2,-8,-68,-24
1482546751550651,-7,-16,-4,-2,0,4,26,0
1482546751550651,3,7,3,-3,4,13,-37,-66
1482546751572672,-8,-12,-7,-2,-13,-35,-39,-16
1482546751572672,-3,0,-13,-2,0,0,26,-22
1482546751573655,-3,7,63,9,0,0,-10,8
1482546751573655,9,10,4,40,4,-2,-54,0
1482546751586683,-7,-34,-90,-99,-18,5,43,22
1482546751586683,4,7,44,34,2,4,3,20
1482546751587678,5,4,10,34,5,-3,-38,-9
1482546751587678,-8,11,7,-66,-10,-6,45,17
1482546751610244,1,-5,5,34,9,9,-35,-7
1482546751610244,-2,2,-7,-10,0,1,30,28
1482546751610741,11,24,7,5,1,3,5,7
1482546751610741,-11,-17,-15,26,-5,-9,-13,18
1482546751632128,-9,-8,4,-4,8,12,85,28
1482546751632128,-1,7,7,-4,2,0,21,59
1482546751633089,-8,6,-4,21,-7,-8,-17,-15
1482546751633089,14,-1,-16,-45,-8,4,20,6
1482546751647114,4,3,8,18,4,4,-45,-25
1482546751647114,9,3,1,12,0,2,13,12
1482546751647114,-8,-6,-6,-11,3,-3,12,14
1482546751647114,-4,35,-3,1,-4,-6,28,4
1482546751669242,-2,8,60,18,-1,-1,-39,-24
1482546751669242,2,-8,-5,-5,2,2,7,7
1482546751670242,-15,-35,-75,-33,-8,-7,-25,-22
1482546751670242,1,-5,-3,-7,-8,-6,-9,-9
1482546751692314,3,14,24,19,6,2,-19,-10
1482546751692314,-1,5,0,-4,-2,-3,-24,-39
1482546751693250,5,3,-1,-16,-1,2,10,3
1482546751693250,-2,-16,12,22,4,0,11,-1
1482546751706854,5,6,-16,13,3,2,-7,-14
1482546751706854,-7,-29,-47,-3,-3,-5,-4,1
1482546751707834,1,0,-9,-10,1,4,-6,5
1482546751707834,-4,0,25,-4,-9,-4,19,4
1482546751729071,-2,9,-6,-5,5,2,-23,-12
1482546751729071,1,2,11,11,3,3,6,4
1482546751730093,-9,-3,2,-2,-1,-7,-58,-22
1482546751730093,12,8,-4,16,3,2,42,16
1482546751754152,-13,-26,-1,1,-7,-7,-12,-6
1482546751754152,8,11,-24,-6,3,2,6,4
1482546751755112,-2,5,76,18,5,0,-3,0
1482546751755112,-4,2,12,-16,7,0,8,5
1482546751767158,-4,-15,-49,-10,-23,-2,-9,-4
1482546751767158,-4,2,23,-19,-10,-5,15,10
1482546751767158,7,9,-13,-26,-8,-2,6,2
1482546751767158,1,2,16,14,2,-2,-14,2
1482546751789176,6,25,-4,28,10,2,13,3
1482546751789176,9,-5,41,11,-1,4,-2,11
1482546751790138,-10,13,-32,-35,-2,-6,-19,-3
1482546751790138,-15,-29,-13,27,-2,1,13,0
1482546751812714,0,7,13,-15,5,0,-11,-7
1482546751812714,-2,-1,19,1,1,2,-4,-4
1482546751813213,14,22,-38,56,16,3,9,4
1482546751813213,-10,-34,24,-46,-9,-4,-4,-4
1482546751826734,1,10,-18,-8,2,-2,-9,-6
1482546751826734,-7,-1,9,-29,-24,-10,-5,-7
1482546751827726,6,-3,34,-13,12,-3,14,1
1482546751827726,-1,14,-3,91,14,9,-2,-3
1482546751849743,5,-8,-5,-38,-3,2,3,6
1482546751849743,-4,-1,-35,4,5,-1,7,7
1482546751849743,-9,-23,6,-8,-17,-2,6,1
1482546751849743,1,5,13,4,1,-1,0,-5
1482546751872764,-7,-8,30,16,6,-3,-10,-3
1482546751872764,1,10,-6,7,-2,-1,-8,-5
1482546751872764,-2,-2,-6,-10,-8,-2,-8,-5
1482546751872764,-1,-3,-21,-15,1,-1,2,-1
1482546751886774,6,-2,56,14,1,1,5,0
1482546751886774,-1,3,1,-10,5,5,6,3
1482546751887770,7,0,24,7,-3,1,9,2
1482546751887770,-4,-1,-47,-3,-3,-3,-7,-3
1482546751909452,4,16,-11,12,6,1,-3,-3
1482546751909452,-4,-12,-5,-40,-7,-3,-6,-3
1482546751910408,-6,-3,7,16,3,2,3,1
1482546751910408,-2,9,15,-4,1,0,1,1
1482546751932628,-2,-8,-69,-7,-10,-7,-7,-4
1482546751932628,3,-8,-54,-40,5,1,-1,0
1482546751933588,2,25,23,19,-5,8,9,5
1482546751933588,-16,-35,-14,2,13,0,0,-2
1482546751946638,-14,-20,27,5,0,2,-3,-6
1482546751946638,-5,1,33,42,3,-3,-4,-6
1482546751947599,7,0,-18,-36,-11,-4,1,2
1482546751947599,8,7,-23,-8,-8,-5,-12,5
1482546751968795,2,-3,19,24,7,5,-9,4
1482546751968795,-5,-2,8,-9,0,4,43,8
1482546751969757,4,4,25,15,0,-3,0,-2
1482546751969757,3,7,-62,-6,-2,-2,-6,-4
1482546751992819,1,1,74,6,-7,-5,6,2
1482546751992819,-6,-11,-39,-41,1,-2,-16,-5
1482546751992819,-6,-22,-36,7,4,2,0,-1
1482546751992819,-2,15,87,-28,-17,-5,5,-4
1482546752006758,5,2,-19,-16,-2,-3,-7,-4
1482546752006758,1,6,6,31,3,0,-6,-2
1482546752007787,-2,-2,-14,-3,5,1,3,0
1482546752007787,3,2,-5,-3,4,3,-3,-2
1482546752028930,0,17,28,7,-1,1,2,-2
1482546752028930,-7,-12,-4,11,-2,0,-6,-1
1482546752029927,1,-3,-29,-16,-3,-2,4,3
1482546752029927,3,4,19,2,-2,-1,-1,0
1482546752052075,2,4,3,-2,1,-1,2,2
1482546752052075,0,5,5,-1,-2,-1,-2,-3
1482546752053013,-4,-9,-23,-3,-4,-3,-5,-5
1482546752053013,4,7,2,-3,-5,-3,3,-1
1482546752066086,3,3,17,45,20,6,4,-1
1482546752066086,4,-10,-53,-41,-1,1,-7,-2
1482546752074233,-7,-4,-15,-24,-16,-7,-2,-3
1482546752074233,-5,-10,65,27,-8,-10,-5,-3
1482546752089244,-2,-1,-53,-20,-4,-2,0,2
1482546752089244,2,6,45,47,3,2,-2,0
1482546752090205,-11,0,7,-12,7,0,0,0
1482546752090205,-2,-14,-59,-28,1,-1,2,7
1482546752112775,1,6,9,7,-3,-3,-1,-2
1482546752112775,0,6,23,4,3,1,-1,3
1482546752113279,5,0,-9,4,1,4,3,-1
1482546752113279,-5,-7,-16,-8,-2,-2,-4,-5
1482546752134918,-5,-6,-7,-5,-4,-4,-2,-2
1482546752134918,-7,-5,1,5,-1,-2,-4,0
1482546752135925,15,7,31,3,2,2,-1,2
1482546752135925,-6,4,-8,5,0,-2,9,-3
1482546752148944,0,-13,-52,-15,-3,-1,-1,-2
1482546752148944,-1,-8,-18,-7,-4,-1,-2,0
1482546752149942,-3,9,37,13,2,-1,-2,-2
1482546752149942,-1,-7,-8,-3,4,2,-2,0
1482546752171958,-1,-9,-3,-13,-7,-6,-3,-1
1482546752171958,-3,-1,-8,10,0,-2,-2,-1
1482546752172945,2,4,-2,5,1,-2,-1,1
1482546752172945,5,2,-14,-9,1,3,-4,-7
1482546752186021,-2,-12,5,8,5,-1,4,0
1482546752186021,-23,6,0,2,-7,-7,-4,-1
1482546752194027,32,-8,-13,8,3,0,0,-4
1482546752194027,-1,5,24,20,4,1,-2,-3
1482546752209557,17,8,-17,-21,1,5,1,4
1482546752209557,-29,3,64,0,-5,-7,-58,-11
1482546752210021,-6,-14,-30,-10,-8,-2,78,33
1482546752210021,3,7,-46,-38,0,0,-4,5
1482546752232311,3,3,34,27,3,4,15,14
1482546752232311,3,-4,19,47,-6,-8,-18,-38
1482546752233294,-19,0,-2,-6,-6,-6,-78,-44
1482546752233294,7,0,13,24,10,2,-22,-3
1482546752246320,-8,-1,-83,-57,-6,2,105,71
1482546752246320,21,2,-9,-13,2,2,17,11
1482546752254401,-26,-4,6,12,0,-5,-23,-20
1482546752254401,9,2,17,42,10,-1,-46,13
1482546752269414,-3,-7,13,-31,-20,-14,-96,-97
1482546752269414,-12,-15,-22,-17,0,5,95,48
1482546752270414,4,7,-3,-5,-3,-1,19,14
1482546752270414,-4,17,21,23,5,-4,26,-13
1482546752292565,2,-9,1,39,27,5,-42,-14
1482546752292565,-1,-9,26,-10,-10,1,-17,-13
1482546752293523,-31,-15,-21,-21,10,1,2,-8
1482546752293523,0,1,-22,50,10,4,3,4
1482546752306533,-10,0,55,4,-23,-11,-5,9
1482546752306533,20,7,13,-5,6,-1,-13,-4
1482546752314724,12,10,27,-2,-2,2,36,39
1482546752314724,13,7,19,63,-6,0,62,33
1482546752328761,-21,-9,-58,-56,5,1,-28,-18
1482546752328761,7,10,2,8,1,6,54,20
1482546752329762,8,1,14,14,-4,2,57,47
1482546752329762,-4,-4,-24,-41,-3,-2,12,16
1482546752352786,8,11,9,-1,-2,-1,-61,-19
1482546752352786,4,0,12,29,3,2,79,61
1482546752352786,-1,1,5,-3,-2,-3,-49,-26
1482546752352786,-2,-12,-24,-24,-8,-3,13,-16
1482546752365792,2,7,1,32,1,3,12,10
1482546752365792,1,-2,-28,-55,-1,-5,-35,-14
1482546752373798,11,1,8,26,3,3,-4,-7
1482546752373798,-12,-9,-10,-45,-5,-1,-12,-5
1482546752397799,-7,-2,14,14,-6,-5,26,10
1482546752397799,7,-2,-12,9,4,-1,-51,-24
1482546752397799,0,-11,-31,-8,-2,5,67,28
1482546752397799,-8,-7,44,-26,-7,-5,-16,15
1482546752412841,6,2,-23,22,7,-2,4,-1
1482546752412841,4,-1,4,-2,-4,0,-21,-14
1482546752413356,7,2,-19,45,-11,-6,-10,-11
1482546752413356,2,-10,-14,-73,-13,-6,-26,-22
1482546752436454,12,-7,35,49,3,2,13,11
1482546752436454,-72,-7,-19,-3,13,10,25,9
1482546752437451,3,38,16,-11,9,3,-36,-22
1482546752437451,-5,-27,-58,-3,-8,-4,8,-7
1482546752449446,8,3,-7,0,-8,-6,-53,-21
1482546752449446,24,-3,9,5,-2,-3,32,11
1482546752450447,1,-2,25,-6,-7,-4,-26,-14
1482546752450447,-8,14,0,6,4,1,26,4
1482546752471575,15,12,9,-59,9,12,13,24
1482546752471575,-1,-17,-58,41,-14,-8,-20,-25
1482546752472550,1,-7,24,-1,-5,-1,-9,-7
1482546752472550,9,7,5,31,1,-4,-9,-6
1482546752494593,-7,-7,2,-56,0,-4,3,-11
1482546752494593,12,11,-14,6,0,3,-13,-5
1482546752495567,-4,-14,-11,-17,-5,-2,-4,-2
1482546752495567,-9,-6,35,-44,-1,5,-11,-11
1482546752509637,-11,5,-18,21,-6,-2,21,15
1482546752509637,9,7,3,-39,-2,-2,-18,-7
1482546752510142,-3,-3,-1,26,5,-3,-11,-8
1482546752510142,-6,1,-12,-9,-2,8,-4,-1
1482546752532351,-3,-3,4,12,-9,-10,12,-2
1482546752532351,1,-1,7,0,23,2,-13,-6
1482546752533353,2,-4,-11,9,-6,-1,-11,-7
1482546752533353,0,2,3,3,-6,-2,3,2
1482546752555352,8,-2,8,4,-10,-4,8,1
1482546752555352,-8,-6,12,7,-4,-5,-12,-7
1482546752555352,-14,-6,-12,-28,6,-1,-1,4
1482546752555352,-4,1,3,10,1,0,-3,-4
1482546752569364,7,-7,-7,13,3,1,5,-2
1482546752569364,7,9,7,8,-3,-4,-11,-2
1482546752570364,7,2,-5,-15,0,3,1,1
1482546752570364,-7,-6,-4,-6,-13,-6,-3,-3
1482546752592385,1,1,6,10,-12,-2,-1,-4
1482546752592385,-1,7,-1,-17,1,1,-2,-2
1482546752593379,9,3,-4,-5,10,6,4,2
1482546752593379,-6,-4,18,31,-4,-5,-5,-4
1482546752614900,-7,-1,-13,-20,0,2,6,5
1482546752614900,3,-2,23,13,-16,-8,-5,-3
1482546752615903,-5,-5,2,1,5,2,-2,-3
1482546752615903,7,2,-5,5,4,0,-3,-1
1482546752629493,-8,-2,-1,4,6,2,1,-1
1482546752629493,-2,-1,-1,-6,-2,-1,-5,-2
1482546752629493,1,0,-19,1,-1,0,-2,0
1482546752629493,6,3,-1,7,4,1,0,2
1482546752653539,-13,-5,4,-17,-7,-1,2,-2
1482546752653539,1,-3,-18,5,-6,-3,-3,-3
1482546752654511,-5,-4,4,-25,-4,-2,-1,-1
1482546752654511,6,6,9,3,-3,-5,-2,-2
1482546752674581,-13,0,-28,3,2,2,1,-2
1482546752674581,14,-11,14,3,0,0,-2,2
1482546752675538,13,11,14,3,3,-1,-3,1
1482546752675538,-11,-11,-51,-9,-8,-5,-5,-6
1482546752689537,-12,-13,8,2,14,7,3,0
1482546752689537,-15,0,21,-5,-2,-3,-5,-1
1482546752689537,-6,-2,-34,-11,-13,-5,1,-6
1482546752689537,4,8,8,-8,1,1,-2,0
1482546752712593,-1,8,2,2,-3,-4,-1,-2
1482546752712593,1,-8,-18,-4,0,3,-4,-6
1482546752713581,-1,6,21,-1,-5,-4,-1,6
1482546752713581,0,0,-15,4,7,1,-40,-13
1482546752735113,12,-4,-5,0,-3,0,27,14
1482546752735113,-6,6,13,-1,3,1,-9,-7
1482546752736110,-1,-14,-1,4,3,1,4,-3
1482546752736110,0,-4,6,-4,-2,-2,-24,-18
1482546752749122,-1,4,9,-1,0,1,-7,-6
1482546752749122,11,1,-1,-11,2,1,28,40
1482546752750120,-13,-5,-12,14,-2,-3,9,-3
1482546752750120,4,-3,7,-7,0,2,8,-2
1482546752772138,3,-1,11,5,-5,-2,-1,9
1482546752772138,-2,6,-8,-1,0,-1,5,0
1482546752773136,5,-2,3,-10,-1,-2,-15,-2
1482546752773136,7,2,-3,-1,1,2,20,10
1482546752795154,-12,-2,2,5,0,-1,0,-7
1482546752795154,8,-9,-21,0,5,2,-20,-13
1482546752796138,-10,-5,6,-2,-3,-4,-25,0
1482546752796138,1,3,3,-7,-9,0,30,7
1482546752809686,-5,2,9,6,-13,-8,-9,5
1482546752809686,1,3,14,10,6,4,6,-7
1482546752810187,11,10,1,-26,7,9,-14,-9
1482546752810187,-3,-12,-18,-6,-4,0,-1,2
1482546752832892,1,11,2,-4,-6,-3,4,-10
1482546752832892,-5,-12,12,7,-7,-8,-19,-4
1482546752832892,-12,1,5,5,-4,-4,22,7
1482546752832892,-7,-14,7,-1,3,2,23,9
1482546752854933,7,8,27,8,8,4,-20,1
1482546752854933,4,-6,-42,-18,-3,-6,-82,-51
1482546752855878,-5,0,12,5,-2,4,25,30
1482546752855878,5,0,12,5,7,15,81,83
1482546752868944,1,7,-17,4,-1,-10,-62,-42
1482546752868944,20,-5,17,7,5,1,-84,8
1482546752869917,-31,-23,-12,-1,0,17,2,55
1482546752869917,0,35,-2,-3,-10,-19,95,-21
1482546752892935,-7,-18,-1,-6,2,0,-38,8
1482546752892935,5,1,-1,1,-5,-6,-4,-13
1482546752892935,20,6,-5,4,-1,-9,-15,-13
1482546752892935,-16,-3,5,4,-2,-1,-62,-16
1482546752915039,-4,-15,-6,-4,7,2,31,5
1482546752915039,-8,1,-1,7,-1,-5,32,-2
1482546752915989,6,-3,-15,-31,-11,0,4,-10
1482546752915989,-7,4,8,1,-8,-7,-59,-40
1482546752929221,20,18,1,-10,-8,3,-4,-10
1482546752929221,-32,-16,0,0,10,5,46,33
1482546752930168,5,5,-5,6,4,-2,18,-7
1482546752930168,4,-2,3,1,1,-3,-33,-11
1482546752954243,-1,-9,3,-15,4,-1,-28,5
1482546752954243,9,16,1,35,-4,4,24,7
1482546752954243,1,-1,-8,-26,-13,-5,-18,-27
1482546752954243,-1,1,-13,-8,6,-3,-20,10
1482546752975258,-2,-2,4,9,-8,-2,-17,-17
1482546752975258,2,6,-6,-23,-1,2,-16,-15
1482546752975258,1,-2,2,10,5,-3,49,48
1482546752975258,-1,-10,-6,2,1,5,49,17
1482546752989263,-6,4,-2,6,0,-4,0,-3
1482546752989263,-1,3,6,-9,-3,3,27,11
1482546752990210,0,3,-7,14,4,-2,-39,-24
1482546752990210,3,-5,12,3,-12,-9,-54,-21
1482546753011846,-7,-11,-6,-10,-3,7,22,-11
1482546753011846,0,9,16,-1,8,-5,33,17
1482546753012790,0,-6,-13,4,3,3,-12,-20
1482546753012790,-2,-1,-4,9,6,3,-11,-3
1482546753034426,-3,-2,-4,-6,-2,-3,-3,-12
1482546753034426,-3,-1,5,1,-22,-6,-18,-5
1482546753035424,-3,-3,13,21,15,-3,-9,-8
1482546753035424,3,4,0,-26,-6,2,-17,-1
1482546753048438,-3,-3,-9,3,-5,-7,-1,-10
1482546753048438,-3,-5,-11,-10,-10,-2,18,13
1482546753056442,1,10,11,19,9,-2,-3,-4
1482546753056442,-15,3,-2,-12,-15,-5,-22,-12
1482546753071557,4,-14,-9,15,24,6,36,27
1482546753071557,0,2,-5,-4,11,-1,0,-10
1482546753072504,3,-2,-13,-38,-5,0,-121,-95
1482546753072504,5,-4,17,5,1,9,80,91
1482546753094688,-2,6,6,-8,-12,-5,-15,1
1482546753094688,-5,-2,6,12,-5,-2,6,3
1482546753095635,0,4,4,5,-3,-5,-10,-6
1482546753095635,6,2,5,1,7,2,-30,-35
1482546753108696,-3,6,12,15,2,1,25,21
1482546753108696,3,13,56,-12,-2,3,10,5
1482546753117237,-9,-10,-19,-7,-20,-8,17,14
1482546753117237,0,0,25,2,6,-2,-10,-12
1482546753131337,9,-5,-12,17,11,6,23,9
1482546753131337,-7,2,-13,-14,-7,-3,-43,-33
1482546753132334,1,3,19,11,4,-4,26,17
1482546753132334,-1,-9,-12,12,16,8,-6,-8
1482546753155402,5,7,9,-20,-8,0,-8,1
1482546753155402,-5,-21,-30,-9,-3,-4,7,-1
1482546753155402,2,1,5,-6,-16,-12,-1,9
1482546753155402,-5,-5,-18,5,4,-3,-6,-8
1482546753168443,0,4,39,33,-6,6,1,0
1482546753168443,0,-2,-56,-36,3,9,8,-4
1482546753176589,1,-2,-9,5,1,-3,-27,-19
1482546753176589,5,2,0,15,-7,-6,20,34
1482546753191602,-1,1,-32,-36,-7,-2,51,13
1482546753191602,-3,-8,-6,7,-4,-6,56,76
1482546753192544,-2,2,8,3,0,4,6,4
1482546753192544,16,2,-11,8,3,0,-35,-26
1482546753215178,-4,3,2,-19,7,-9,-113,-72
1482546753215178,15,-6,-10,6,-4,15,80,79
1482546753216152,-30,9,23,4,2,4,8,-12
1482546753216152,-5,-7,-39,-15,-9,-4,-32,-2
1482546753228229,1,-3,-5,19,4,-2,-20,-14
1482546753228229,7,13,47,23,14,-5,-83,-56
1482546753237246,2,-12,-31,-44,-5,-1,40,7
1482546753237246,5,7,14,31,-10,3,40,16
1482546753251283,-5,-2,4,16,8,-4,16,12
1482546753251283,-8,-6,-13,-42,-16,-6,-26,-34
1482546753252263,12,2,16,3,22,14,21,19
1482546753252263,-2,14,12,-21,1,-2,-29,-24
1482546753275307,-3,-26,1,-24,-18,-8,41,31
1482546753275307,-10,11,33,16,-3,-4,-2,-16
1482546753275307,5,-1,2,-2,0,-4,-32,-4
1482546753275307,-11,-15,-10,-11,5,-2,24,13
1482546753288286,1,8,11,17,1,-5,-89,-81
1482546753288286,4,6,-13,4,7,11,-5,7
1482546753297291,9,9,-18,-17,-8,-2,-43,0
1482546753297291,-23,-11,14,2,4,2,-14,-13
1482546753311810,0,-11,-23,-14,-6,-5,-26,-13
1482546753311810,-14,-3,-4,25,-3,-7,2,-5
1482546753312811,2,2,13,21,8,2,29,13
1482546753312811,10,2,0,-18,-3,-3,-16,-4
1482546753334885,0,4,-13,-4,-3,2,7,15
1482546753334885,-3,-1,-12,1,3,-7,-20,-23
1482546753335830,1,-6,6,10,-9,-1,22,15
1482546753335830,2,-3,-10,-19,-3,-5,-20,-24
1482546753348895,-8,0,-8,9,5,3,24,23
1482546753348895,4,1,10,6,-2,-3,5,0
1482546753356899,2,-3,4,10,-8,-4,-28,-30
1482546753356899,14,-7,2,9,4,7,63,58
1482546753371911,7,8,-11,-27,-13,5,23,25
1482546753371911,-1,-3,2,35,15,1,-24,-12
1482546753372860,-8,-13,-11,-9,-7,-6,36,3
1482546753372860,-2,2,-6,-13,-7,-6,-28,-31
1482546753394927,0,2,23,18,7,3,-43,-18
1482546753394927,7,-4,3,-16,1,3,92,78
1482546753395873,-4,0,-11,25,-1,-3,15,12
1482546753395873,-8,-1,-32,-21,-5,-2,-26,-13
1482546753417898,-2,-2,-2,-9,2,-2,17,12
1482546753417898,-6,4,5,-8,-6,1,-43,-42
1482546753418398,-2,4,-20,27,5,1,-11,5
1482546753418398,2,-5,46,-39,8,0,-50,-32
1482546753431995,-12,-5,-13,35,-13,-6,27,-29
1482546753431995,12,-1,-21,20,3,1,-93,-28
1482546753432970,-8,0,28,-66,2,4,64,12
1482546753432970,-6,-9,-22,34,-10,-9,57,23
1482546753455009,0,-2,-5,-38,-4,0,-14,15
1482546753455009,-4,-6,16,18,-4,-6,5,14
1482546753455960,6,8,-14,15,10,5,-13,-14
1482546753455960,-11,-2,-43,-5,-1,-1,-26,-24
1482546753477142,22,5,14,-8,2,0,63,32
1482546753477142,7,-8,-46,-13,-2,-4,15,-6
1482546753478095,0,-6,26,5,-20,-7,-26,-2
1482546753478095,-6,8,31,9,14,-5,-14,-4
1482546753492143,-5,0,10,5,-1,15,0,15
1482546753492143,-5,-1,-24,-20,9,5,-1,-12
1482546753492143,2,-6,-18,14,-4,-4,-18,-1
1482546753492143,-2,-9,3,-7,-14,-8,-13,4
1482546753515198,-8,5,35,0,-6,-9,4,0
1482546753515198,-1,-4,2,18,-10,-10,-10,-21
1482546753516181,2,10,6,-15,39,13,-9,5
1482546753516181,-4,-17,-3,15,-17,-1,9,-1
1482546753537783,-4,-27,-91,0,2,-1,-9,-1
1482546753537783,-6,2,65,4,-5,1,0,-2
1482546753538778,-4,5,-12,-4,-18,-9,-10,-1
1482546753538778,5,-3,-34,1,6,4,-3,-2
1482546753551806,1,5,5,12,5,3,-4,2
1482546753551806,1,5,-4,4,-3,-2,-5,-3
1482546753552796,1,0,1,-57,-1,2,2,2
1482546753552796,5,10,45,87,1,1,0,-2
1482546753574826,-17,-21,12,-30,-11,-8,-22,-7
1482546753574826,-2,-1,-7,-14,3,1,51,14
1482546753575819,0,-1,19,12,-4,0,-9,-3
1482546753575819,4,4,-17,-21,7,3,-1,4
1482546753597823,4,6,14,16,5,1,3,3
1482546753597823,-2,4,23,1,16,3,-13,-6
1482546753597823,-2,-11,-52,1,-5,-2,-4,0
1482546753597823,-3,7,2,-2,-1,-1,3,-1
1482546753611976,1,9,54,7,-7,-5,-1,0
1482546753611976,0,2,-26,2,-10,-1,-8,-7
1482546753612923,-17,-25,11,40,-10,-5,-6,-8
1482546753612923,6,5,-33,6,17,2,-1,2
1482546753635260,-2,-7,-19,-57,5,2,1,0
1482546753635260,1,6,-22,13,-4,0,-7,-2
1482546753635260,1,3,15,35,-2,-4,-2,1
1482546753635260,1,5,31,-81,-6,3,1,-2
1482546753657320,-2,7,-11,24,-2,-4,-3,-4
1482546753657320,5,10,49,-21,1,1,-4,-1
1482546753658263,-3,-11,-86,18,-3,-2,-6,-4
1482546753658263,-5,-1,47,31,14,2,-1,-4
1482546753672278,5,1,-41,-19,-3,-2,2,4
1482546753672278,-7,-10,-53,-47,-18,-1,-4,-4
1482546753680279,4,-7,34,-5,18,3,0,2
1482546753680279,-8,-8,30,4,-12,-2,-4,-3
1482546753695319,0,3,10,16,1,-2,-3,0
1482546753695319,0,-7,-28,6,-1,-3,-4,-1
1482546753695319,6,10,0,-17,-2,0,0,2
1482546753695319,-10,-46,-23,-9,-3,-4,-2,-4
1482546753717882,-1,9,38,31,-3,3,3,-1
1482546753717882,-5,-3,4,-52,-1,-6,-5,-5
1482546753718368,4,12,15,-7,-3,0,4,2
1482546753718368,12,10,1,16,-4,-1,0,0
1482546753732073,-5,3,-14,-19,4,2,1,2
1482546753732073,-3,-26,-13,8,5,3,-1,1
1482546753732073,3,9,23,-4,-10,-4,-3,-3
1482546753732073,-5,4,15,-8,-17,-5,-5,-3
1482546753755108,-3,-4,-38,-15,2,0,-1,-2
1482546753755108,7,20,48,37,3,-1,2,2
1482546753756106,-13,-15,-4,9,-2,-3,-5,-4
1482546753756106,0,-13,-6,-13,4,5,3,2
1482546753777230,2,4,-10,0,5,1,1,1
1482546753777230,-4,-2,32,30,4,-1,-3,-3
1482546753778181,-1,-10,18,-70,-9,-3,-1,0
1482546753778181,2,16,-11,26,2,-1,0,1
1482546753792214,-2,-6,-3,6,2,2,-2,-7
1482546753792214,2,4,16,0,-8,-4,1,-1
1482546753792214,-1,-20,-24,2,1,-1,-1,-2
1482546753792214,-11,11,-44,6,0,-3,-1,-4
1482546753815290,4,11,-2,14,-3,-1,-1,0
1482546753815290,-6,-11,-5,0,6,0,-3,-2
1482546753815768,4,13,24,24,4,4,0,1
1482546753815768,6,7,4,-34,4,3,3,3
1482546753837085,-2,-6,-19,12,-11,-4,-1,-1
1482546753837085,-2,6,2,20,2,-6,-5,-2
1482546753838031,-2,6,7,-32,4,4,2,1
1482546753838031,-2,-15,-29,9,-13,-5,-4,-2
1482546753852188,1,5,23,-3,8,0,1,0
1482546753852188,-1,4,-6,-14,-8,-4,-1,-3
1482546753852188,-2,-8,-43,7,-2,-3,-1,-3
1482546753852188,0,5,15,7,-1,-1,0,-1
1482546753875207,1,-4,9,-2,7,2,1,2
1482546753875207,-2,-3,-31,-12,1,5,-1,-2
1482546753876175,2,-1,-1,19,2,2,-1,0
1482546753876175,-1,4,13,-17,-4,-1,-1,-1
1482546753897245,-3,-2,7,14,-4,-2,-1,0
1482546753897245,8,1,6,-7,8,-1,1,1
1482546753898194,-4,9,2,-15,4,8,4,4
1482546753898194,0,3,19,-5,-1,-2,-1,-1
1482546753911818,-2,-6,-12,-6,-2,-2,-3,-3
1482546753911818,-3,-3,-22,-1,-1,3,2,0
1482546753912768,2,3,29,3,-3,-4,-3,-1
1482546753912768,1,4,37,0,1,4,0,0
1482546753934904,-7,-4,-20,5,-9,-9,-11,1
1482546753934904,0,-4,-29,-29,-3,-2,11,2
1482546753935892,3,3,0,4,-5,-4,-3,-1
1482546753935892,4,7,20,24,7,6,2,1
1482546753957931,1,4,-2,-21,-7,-9,-3,-2
1482546753957931,-5,-17,-9,12,22,13,0,2
1482546753957931,1,9,7,7,-5,-2,-2,-1
1482546753957931,-4,2,24,7,2,0,-1,-1
1482546753970914,3,-5,7,-10,-10,-4,2,-1
1482546753970914,-1,7,9,-7,-10,1,-3,-3
1482546753978951,5,16,-18,10,6,-2,3,0
1482546753978951,-3,-8,-5,-8,-6,-4,-4,-3
1482546753994983,3,6,17,8,2,0,1,-1
1482546753994983,-3,-5,3,-6,-6,0,-5,-2
1482546753995935,1,7,23,10,-3,-6,-2,0
1482546753995935,0,-7,-63,-9,-4,-3,0,0
1482546754017513,-2,-10,1,-14,4,6,1,-1
1482546754017513,0,-13,-5,2,-3,-3,-2,-2
1482546754018532,-3,-7,2,-3,-9,-3,-7,-4
1482546754018532,3,7,-5,-3,3,0,1,1
1482546754031110,10,14,-2,33,8,4,5,3
1482546754031110,-11,-8,-37,-75,-4,2,-3,-1
1482546754039117,-8,-9,38,27,-5,-11,-11,-17
1482546754039117,1,3,20,46,6,0,1,1
1482546754055166,4,9,-24,-24,-5,4,12,3
1482546754055166,6,18,3,40,1,-5,-1,-3
1482546754056111,0,-6,-26,-23,-2,0,1,2
1482546754056111,0,-1,-26,-38,4,1,-4,2
1482546754077182,-5,-2,31,33,-1,-2,-6,-4
1482546754077182,1,1,2,2,-8,-4,-2,-2
1482546754079128,-3,-14,10,0,2,4,3,2
1482546754079128,3,6,17,32,-8,-3,-1,1
1482546754091165,-9,-22,-73,-82,-8,-6,-4,-3
1482546754091165,0,-1,11,24,25,8,3,3
1482546754099197,3,16,12,14,8,4,3,6
1482546754099197,0,-9,-28,-28,-6,0,2,-1
1482546754115275,-3,-2,17,6,-5,-3,-2,-3
1482546754115275,2,3,14,-3,-17,-8,-6,-2
1482546754115743,-3,-10,-56,4,3,4,-1,1
1482546754115743,0,-2,-17,-11,-3,-10,-3,-1
1482546754137312,0,8,49,2,2,2,2,-1
1482546754137312,-2,-6,-31,15,1,0,-1,-1
1482546754139316,-3,-12,-23,4,1,3,-1,0
1482546754139316,0,-5,-10,-7,-2,1,1,-1
1482546754151335,-5,1,34,-11,-4,-4,-4,-2
1482546754151335,0,-2,-9,19,-3,-5,-2,0
1482546754160339,-1,2,2,-15,-4,-1,0,0
1482546754160339,-2,-2,-4,0,4,4,-1,-1
1482546754173352,-1,2,-34,-6,5,0,0,0
1482546754173352,1,1,40,-2,-5,3,6,3
1482546754182372,-1,1,8,-19,-3,-5,-2,-1
1482546754182372,-3,-2,5,16,-2,-3,-3,-4
1482546754197409,4,-1,4,26,11,4,0,1
1482546754197409,-5,1,27,-7,-15,-5,-4,-6
1482546754199354,4,3,-22,4,15,1,1,2
1482546754199354,-3,-2,38,6,-16,-3,-3,0
1482546754211425,-2,-7,-3,-11,2,1,-1,-1
1482546754211425,2,5,-1,1,4,0,-1,1
1482546754220407,-4,-1,-19,-5,-10,-1,0,-3
1482546754220407,-4,-1,4,-4,4,0,-1,-1
1482546754235499,-5,-3,15,14,-5,-3,-1,-2
1482546754235499,3,3,16,8,-3,-1,1,1
1482546754236469,-1,9,18,11,-5,-3,-1,-2
1482546754236469,-2,-17,-26,-17,3,0,1,0
1482546754257512,0,-4,8,6,-3,0,-2,-1
1482546754257512,-2,7,-12,-4,3,1,-2,-2
1482546754259513,-3,0,17,-6,-5,-3,1,0
1482546754259513,2,3,-9,-4,-1,-7,0,0
1482546754281557,-1,-7,-6,-2,3,6,1,-2
1482546754281557,1,1,0,5,-5,-4,-4,0
1482546754282508,-7,-21,-8,-15,-7,-2,-3,-2
1482546754282508,-1,9,8,1,5,0,-5,-6
1482546754293541,-3,0,1,15,-6,-10,4,5
1482546754293541,-1,1,-3,-5,10,12,4,-1
1482546754302517,2,4,7,15,0,-8,2,1
1482546754302517,7,13,7,-15,-8,3,0,-1
1482546754317643,2,-3,-41,21,1,4,0,0
1482546754317643,-5,-7,42,-30,2,-6,-4,-3
1482546754319092,1,3,-9,-8,-1,2,-1,0
1482546754319092,-6,-3,-1,9,0,-1,-2,-3
1482546754339693,-1,1,-10,3,-7,-2,-5,-3
1482546754339693,-1,-3,-34,-13,-7,-4,-2,0
1482546754341637,-1,-4,21,29,6,0,-3,0
1482546754341637,2,0,-6,-5,3,3,1,-1
1482546754353772,-7,1,13,6,-9,1,0,-2
1482546754353772,-1,-1,-18,-8,3,-7,-2,-2
1482546754362801,3,-2,4,-11,0,3,0,0
1482546754362801,-3,-3,-22,-8,-1,0,-1,0
1482546754377835,3,8,29,1,6,-1,-4,-1
1482546754377835,-4,-8,-18,0,-8,-5,5,1
1482546754378788,-1,2,-2,-4,-4,1,-7,-5
1482546754378788,5,1,6,3,5,-2,-5,-1
1482546754399851,1,-1,-4,-8,3,3,11,3
1482546754399851,2,3,7,7,1,-1,-2,1
1482546754401804,-3,-1,-11,-12,-1,1,-3,-4
1482546754401804,-2,0,9,8,2,2,8,5
1482546754413922,2,-3,1,-13,-8,-3,-4,-3
1482546754413922,-1,0,2,1,0,0,-1,-1
1482546754422888,1,-2,-9,-26,7,2,0,-1
1482546754422888,-4,-5,0,32,-2,-2,-4,-3
1482546754436968,-1,-3,-4,-30,-8,-5,-4,-4
1482546754436968,0,-1,5,19,7,2,3,-5
1482546754438979,3,5,-7,6,-3,-1,2,0
1482546754438979,-4,-5,29,-4,1,-1,-4,-1
1482546754460098,-10,-22,-36,-17,0,-1,-4,-11
1482546754460098,1,2,10,6,-6,1,-1,-4
1482546754461051,4,-1,8,7,2,-3,-5,1
1482546754461051,-9,4,-9,-14,-2,1,7,0
1482546754474084,3,6,6,13,-2,-2,-4,-1
1482546754474084,-2,-2,0,-2,0,0,-3,-3
1482546754482115,-4,-8,-13,-6,-9,-2,-11,-9
1482546754482115,-1,-2,-4,-6,-6,-6,6,4
1482546754497125,-1,-1,-8,-17,-1,0,-2,4
1482546754497125,-3,-3,0,-1,-9,-5,-3,-4
1482546754499099,1,4,16,11,1,2,9,2
1482546754499099,1,0,-13,-17,-2,1,-4,-4
1482546754520178,0,-1,-23,6,4,2,-8,-4
1482546754520178,1,0,20,6,-1,-1,16,7
1482546754521649,-7,-9,-6,16,-2,0,-7,-2
1482546754521649,3,-1,7,-7,-2,1,-24,-8
1482546754533301,-2,4,1,8,4,-2,39,15
1482546754533301,1,2,-21,-2,-1,-4,-18,-5
1482546754542281,-1,0,7,-5,-7,-4,1,2
1482546754542281,0,-3,6,38,1,-3,7,4
1482546754557318,-1,1,6,-36,0,6,-11,-3
1482546754557318,-4,-5,-2,16,25,5,-3,-1
1482546754559289,-3,-3,-4,1,-13,-5,6,3
1482546754559289,-1,-2,-12,-8,6,3,-5,-3
1482546754580336,-1,1,-5,6,0,-2,-9,-6
1482546754580336,-1,2,17,-4,-11,-3,8,6
1482546754581278,3,-1,-7,-12,5,1,-3,0
1482546754581278,-3,-1,10,4,-2,-3,-2,-2
1482546754594341,-1,4,13,3,0,-3,4,11
1482546754594341,1,2,-12,-21,-7,-2,0,-2
1482546754601319,-1,-1,-9,43,5,-2,-1,-2
1482546754601319,1,2,1,-30,-6,1,6,2
1482546754617895,-2,-5,12,6,3,0,-2,-2
1482546754617895,1,-4,-11,0,-2,0,-6,-1
1482546754619394,3,2,8,-5,3,1,3,3
1482546754619394,-10,-4,-10,3,3,2,1,-4
1482546754639518,0,-1,0,7,-1,-4,-36,-11
1482546754639518,-2,-2,-6,4,-2,-1,17,8
1482546754641464,1,1,0,-10,-6,1,3,2
1482546754641464,0,-2,2,0,13,7,3,2
1482546754654529,0,-1,9,7,-2,-3,5,-1
1482546754654529,-1,-4,-15,-9,-7,-6,-21,-8
1482546754661510,-4,0,-3,4,0,0,1,-3
1482546754661510,5,4,-1,-19,-4,-3,7,5
1482546754677493,0,4,-3,11,3,1,-6,-2
1482546754677493,-4,-8,-1,8,-9,-2,-4,-4
1482546754678496,-1,-3,7,-10,-2,-4,-28,-18
1482546754678496,2,2,-12,-1,-2,2,35,7
1482546754699560,0,0,3,1,1,0,6,5
1482546754699560,-2,-3,-11,-12,-4,-3,3,4
1482546754701507,-3,-3,-11,5,3,0,-7,-5
1482546754701507,-1,1,38,-5,-1,0,-6,-3
1482546754714625,-5,-8,-13,-8,-4,-3,1,-4
1482546754714625,0,3,8,-6,-2,1,3,-1
1482546754721107,-2,-2,1,-4,-2,-6,-11,-1
1482546754721107,-1,-2,-11,10,-4,-7,-9,-4
1482546754737787,0,3,9,15,4,4,10,2
1482546754737787,3,-1,-15,-16,0,7,0,-1
1482546754738743,-1,-1,-2,9,-1,0,11,9
1482546754738743,0,-2,6,-28,-6,-4,-5,0
1482546754759809,-4,0,13,3,-6,-5,-2,-3
1482546754759809,-2,0,-4,23,-4,-5,-1,-3
1482546754761783,-1,5,6,-8,1,3,8,5
1482546754761783,1,-6,-47,13,2,2,0,0
1482546754773822,-1,1,-12,-3,1,0,-6,-2
1482546754773822,0,2,13,0,3,2,4,-1
1482546754782799,-1,-2,-2,-2,-3,0,5,2
1482546754782799,-2,-1,-16,-21,-5,-5,-10,-4
1482546754797812,0,2,0,-7,-1,-3,-9,-1
1482546754797812,-2,-2,-4,-2,1,0,10,4
1482546754798809,0,-1,2,-7,2,1,4,-2
1482546754798809,-1,-3,-2,11,0,-1,-15,-8
1482546754820389,-1,-3,7,0,-4,-5,-16,-4
1482546754820389,-1,1,9,-1,3,0,53,22
1482546754821866,-1,-1,-15,3,0,1,-8,-1
1482546754821866,2,5,19,3,-3,-3,12,6
1482546754833964,-4,-14,-19,-16,-4,-2,-7,-8
1482546754833964,-1,0,6,-1,-3,-4,-27,-12
1482546754842959,-3,-1,9,-6,-4,0,6,0
1482546754842959,0,3,-9,6,-2,-4,-7,-2
1482546754857023,2,8,18,16,12,3,11,1
1482546754857023,2,0,-5,-2,2,2,-8,-2
1482546754858994,4,2,-4,-7,0,2,10,2
1482546754858994,2,-13,3,-4,-6,-4,-21,-12
1482546754880009,-16,0,1,3,-7,-8,1,3
1482546754880009,-3,1,-5,3,-3,-2,-7,-6
1482546754882011,5,8,18,-2,1,-1,-3,-2
1482546754882011,3,5,5,3,3,1,5,2
1482546754895027,3,-10,-19,-2,3,2,3,-2
1482546754895027,-2,-3,1,-4,-5,-3,-2,-6
1482546754903007,1,-1,-2,-1,3,1,-56,-15
1482546754903007,-5,-3,3,8,5,7,54,33
1482546754917577,0,1,-5,-14,-5,1,25,9
1482546754917577,-2,2,-2,-1,-1,-1,-13,-5
1482546754919072,-2,-5,-6,-7,-3,-7,13,3
1482546754919072,0,-2,-2,0,0,0,-27,-11
1482546754940294,1,4,3,1,-4,-2,-9,-3
1482546754940294,-1,-5,-16,4,-1,0,5,4
1482546754941272,-3,-3,6,-9,-2,-1,-4,-3
1482546754941272,-3,0,11,-4,-5,-5,-13,-6
1482546754953326,1,-1,-8,13,5,1,9,2
1482546754953326,0,0,5,-16,-8,-6,-21,-10
1482546754962306,-1,-3,4,21,14,8,16,9
1482546754962306,-7,-8,-47,-40,-12,-5,0,-8
1482546754976343,1,-3,13,-1,5,7,-11,-8
1482546754976343,-1,2,10,6,-1,-5,-11,1
1482546754992301,-2,2,9,1,-14,-10,3,1
1482546754992301,0,4,-14,13,13,7,1,2
1482546755000337,4,-4,-16,-2,-2,0,-20,-8
1482546755000337,1,3,-5,4,3,0,-8,8
1482546755001306,6,-1,14,-18,-8,-2,12,-1
1482546755001306,-20,-24,-5,-2,-11,-9,-14,-8
1482546755013934,1,5,14,16,10,0,-1,-1
1482546755013934,-1,-8,-10,6,-2,5,0,0
1482546755022887,5,-2,-1,3,-9,0,13,5
1482546755022887,12,7,-13,-30,9,-1,-4,-2
1482546755037515,-3,-13,7,15,-4,-3,3,2
1482546755037515,-7,-8,-56,-8,-5,-4,-3,-2
1482546755038501,-6,0,-8,1,5,1,9,-1
1482546755038501,2,7,24,18,-5,0,-3,-2
1482546755059572,0,-1,-13,-14,-4,0,12,5
1482546755059572,4,7,25,12,7,3,-4,0
1482546755067524,-4,-4,-21,10,2,-2,-8,-3
1482546755067524,-1,3,17,0,3,0,-8,-1
1482546755073584,2,6,14,-2,-6,-5,13,6
1482546755073584,-3,-4,-1,0,-5,-3,-18,-12
1482546755082561,-1,2,-11,-7,-2,-2,26,16
1482546755082561,2,4,22,3,7,8,14,4
1482546755097598,-1,1,19,5,-1,4,-1,-1
1482546755097598,0,-6,-41,-10,-4,-1,-3,-3
1482546755098544,0,5,83,49,10,1,-12,-7
1482546755098544,-5,-20,-86,-76,-16,-6,7,5
1482546755120132,4,10,-12,-2,6,-3,-9,-1
1482546755120132,-5,-7,4,-3,-1,-4,6,-2
1482546755121596,8,0,-28,-13,2,6,-1,1
1482546755121596,-16,2,-22,17,-8,-11,-5,-8
1482546755133771,14,19,108,6,4,6,4,4
1482546755133771,-9,-14,-41,-51,-23,-12,-7,-5
1482546755142722,1,0,-32,-30,-2,-11,-11,-6
1482546755142722,-6,-3,14,18,-2,4,-6,-3
1482546755157758,-5,-2,-9,-14,2,2,9,1
1482546755157758,13,17,47,50,20,5,13,3
1482546755158760,-17,-4,36,9,-2,10,-2,-1
1482546755158760,7,4,-13,-11,-2,-2,-6,4
1482546755179801,-15,-20,-27,14,-19,-15,-10,-13
1482546755179801,-2,7,30,-68,5,12,8,-1
1482546755181747,-2,0,-59,8,-11,-10,-12,-8
1482546755181747,16,17,127,31,3,5,34,27
1482546755193813,13,2,-52,34,-7,11,12,6
1482546755193813,-23,-23,-14,9,2,-21,-36,-6
1482546755202764,-23,-6,17,-77,-20,-8,-17,-10
1482546755202764,11,13,-1,56,3,0,-3,4
1482546755216890,9,5,-30,75,6,2,28,13
1482546755216890,5,14,36,-72,61,36,-2,-22
1482546755223858,-5,-2,29,22,9,-3,-33,22
1482546755223858,3,11,-49,12,12,11,43,28
1482546755239993,-16,-16,-71,-74,-29,-19,-13,-13
1482546755239993,-4,10,104,90,-32,-17,10,-7
1482546755241936,26,18,-97,-19,63,22,11,0
1482546755241936,6,2,31,-57,-10,4,-11,-9
1482546755262981,2,7,76,13,27,14,-16,1
1482546755262981,-6,-9,-81,-4,-36,-21,-1,9
1482546755263979,-7,-19,2,-12,-32,-20,-7,-21
1482546755263979,-4,3,49,78,23,1,1,-10
1482546755277016,-13,-3,-80,-121,-53,-9,-20,-23
1482546755277016,9,-3,38,78,75,14,14,26
1482546755283996,6,6,-35,-34,-6,7,13,16
1482546755283996,-18,-26,-76,-66,23,0,-30,-17
1482546755300033,3,6,69,38,-19,-17,-23,-11
1482546755300033,-10,-21,-37,-17,-16,-3,51,23
1482546755301978,-6,7,-26,3,-9,1,85,16
1482546755301978,11,10,96,105,10,10,-21,-21
1482546755324061,-8,-29,-68,-108,-1,0,-9,-8
1482546755324061,20,21,53,-23,-21,3,-51,-7
1482546755325559,-15,-10,56,55,-6,-10,4,-4
1482546755325559,-10,-13,44,-39,6,-1,0,-6
1482546755337282,12,14,75,45,13,0,-8,-1
1482546755337282,19,10,-105,-5,40,17,-16,-8
1482546755343312,-30,-33,16,-8,-25,-21,-19,0
1482546755343312,-1,11,37,14,-18,-10,-18,-15
1482546755360325,-9,-12,-108,-21,7,0,13,18
1482546755360325,4,10,55,-3,-23,1,15,-11
1482546755361272,26,33,39,27,12,8,-61,6
1482546755361272,-8,-37,-51,-32,12,2,100,26
1482546755382340,-4,-5,35,46,2,-5,-6,1
1482546755382340,-4,-3,-15,-16,-21,0,-3,-1
1482546755384311,4,1,-9,-21,-17,-10,15,-7
1482546755384311,2,10,65,-29,-21,-7,-27,-6
1482546755397294,-7,-18,-6,-34,3,-8,-24,9
1482546755397294,-19,13,23,-2,-26,-21,-32,-21
1482546755403325,6,-7,70,32,11,3,-9,-3
1482546755403325,-21,-12,-128,9,-5,1,-8,-9
1482546755420386,-3,5,11,9,-3,-9,21,-4
1482546755420386,11,7,-28,25,-9,4,14,2
1482546755421887,5,2,20,-24,-16,-3,-20,-10
1482546755421887,-5,-8,-46,2,-19,-21,-40,-28
1482546755442910,2,4,2,5,0,6,26,19
1482546755442910,-3,0,21,28,9,-2,-13,1
1482546755443896,3,2,-60,-25,7,8,44,4
1482546755443896,5,2,56,21,13,7,-79,-10
1482546755456962,-9,2,-7,-23,-10,-8,45,28
1482546755456962,1,-13,43,0,14,6,-59,12
1482546755463938,12,1,2,-9,20,15,80,33
1482546755463938,8,-5,-28,5,13,0,-93,-45
1482546755479976,-11,-8,61,-26,-1,-2,67,10
1482546755479976,3,16,-7,34,3,-5,29,15
1482546755481927,-2,-14,-27,-14,-17,-9,-38,-19
1482546755481927,10,17,4,4,-8,-5,24,31
1482546755501940,6,5,38,27,9,13,-22,-34
1482546755501940,-3,-11,-2,12,13,9,22,-4
1482546755503938,1,-7,17,25,-3,-2,-88,-9
1482546755503938,-6,3,-50,-62,-5,0,95,16
1482546755517065,1,3,25,24,14,-3,-2,-5
1482546755517065,-14,-14,-43,-21,-42,-15,-22,-11
1482546755524027,-8,-1,-9,24,5,7,3,-8
1482546755524027,0,4,25,-8,17,8,-11,4
1482546755539624,4,5,46,20,-3,2,-25,-10
1482546755539624,-5,-14,-36,-39,11,-13,-18,12
1482546755541611,-2,-1,-33,4,-16,-6,42,-5
1482546755541611,-4,0,-49,-47,-63,-8,-5,-1
1482546755562677,3,6,32,23,39,14,-46,-10
1482546755562677,7,-12,-9,-17,-21,-10,21,-8
1482546755563622,-13,4,24,-5,8,-2,-24,10
1482546755563622,26,15,27,28,8,4,-12,11
1482546755575686,-8,-6,-41,-10,-5,1,-2,-20
1482546755575686,-12,-19,15,3,13,8,-76,-17
1482546755584688,-5,22,76,14,1,2,103,58
1482546755584688,72,-6,-31,0,-7,-10,-8,-7
1482546755599704,-3,-7,-47,-7,-7,-3,-31,3
1482546755599704,35,-6,7,8,2,1,18,-17
1482546755601649,-4,8,6,1,4,-2,-39,0
1482546755601649,-15,-2,1,13,-3,-7,-36,-10
1482546755622784,8,12,-5,-21,6,7,99,27
1482546755622784,-10,9,20,15,-8,-6,-66,-35
1482546755624233,-17,-26,-27,-40,-2,4,80,12
1482546755624233,-14,10,32,50,-2,-4,-5,-4
1482546755635937,-5,-9,-55,-7,3,-4,-40,-5
1482546755635937,-11,5,8,-59,-1,1,19,7
1482546755644901,8,-2,-4,11,0,-4,-48,-30
1482546755644901,-16,-6,-19,-3,6,0,13,9
1482546755660929,2,9,16,15,-1,1,-19,0
1482546755660929,-1,-3,-22,-8,-2,2,40,12
1482546755662908,5,-8,15,-7,-1,-7,-51,-25
1482546755662908,-12,-7,-37,-24,2,1,33,14
1482546755689976,1,6,3,18,-9,-5,-25,-7
1482546755689976,0,8,3,-26,1,1,36,12
1482546755691926,0,-4,-14,-2,-1,-2,-26,-12
1482546755691926,-22,1,20,-2,2,0,3,0
1482546755704936,26,11,24,19,-5,-4,-5,-1
1482546755704936,2,-4,-21,5,2,3,10,12
1482546755706938,-11,-9,16,15,4,4,-11,-14
1482546755706938,-11,-6,3,-13,-1,0,4,-2
1482546755720063,-7,-13,-10,-16,-2,-4,-17,-8
1482546755720063,10,13,34,12,3,5,6,-3
1482546755721575,15,10,-12,1,-1,1,24,2
1482546755721575,-14,-5,15,1,-6,0,-3,-2
1482546755742171,-5,1,16,33,13,-1,0,0
1482546755742171,-8,-9,-37,-27,-13,2,0,0
1482546755744156,3,-1,-3,-3,3,-2,-14,-11
1482546755744156,3,2,2,0,-3,-5,5,2
1482546755756183,-2,-3,23,9,-10,-6,-14,-1
1482546755756183,-2,3,33,21,4,-1,11,6
1482546755765235,0,1,-31,-3,6,4,-2,1
1482546755765235,2,-5,20,-1,-4,-3,1,3
1482546755780305,-8,-2,-33,-19,-5,-1,-7,-7
1482546755780305,1,2,5,10,4,2,10,-1
1482546755781271,17,6,11,-1,-5,-2,-1,-6
1482546755781271,-1,6,19,12,5,0,-1,22
1482546755802316,-5,2,-7,-10,0,0,-10,-8
1482546755802316,20,-11,-14,0,-6,-6,21,42
1482546755804289,-5,16,30,8,0,4,-15,-62
1482546755804289,-3,-5,-8,-1,4,3,9,-4
1482546755825367,7,2,-4,-10,0,0,-1,4
1482546755825367,7,6,7,11,2,1,3,9
1482546755826845,-19,-13,-16,-3,0,-4,-12,8
1482546755826845,1,-5,12,1,-2,-4,-13,-14
1482546755847498,-7,8,20,-6,-3,-3,26,12
1482546755847498,-12,-11,-39,-3,-5,-3,-6,-16
1482546755849496,2,-3,11,-3,-2,-4,-6,11
1482546755849496,-2,4,-1,0,1,1,-8,-9
1482546755862565,5,1,37,16,2,3,8,10
1482546755862565,-8,6,-9,-8,1,0,20,2
1482546755863535,0,-1,-18,-10,-2,-1,4,12
1482546755863535,11,-5,-33,1,-1,-3,-11,1
1482546755876546,5,-18,-46,-13,-4,-3,-9,4
1482546755876546,-8,6,-35,7,3,1,2,-5
1482546755885526,-5,-8,17,36,-3,-5,-9,1
1482546755885526,4,-6,-28,-37,1,4,12,-3
1482546755899587,23,16,3,1,4,-1,-5,-3
1482546755899587,-26,-33,-62,-12,-13,-14,-6,5
1482546755901533,3,5,28,18,14,14,5,12
1482546755901533,6,-5,-8,12,1,4,4,-2
1482546755922665,2,-7,-11,28,2,0,4,-4
1482546755922665,0,5,26,-65,-4,-6,-16,-9
1482546755924109,4,14,11,20,-4,-9,-2,5
1482546755924109,-6,-12,-2,4,9,4,-6,-3
1482546755935717,-11,0,-15,28,-3,5,14,1
1482546755935717,8,9,42,-12,-2,3,-7,-6
1482546755944737,-3,-4,-22,-7,-4,-9,-18,-5
1482546755944737,-7,2,-2,-22,-15,-2,37,23
1482546755959771,-6,-7,3,-8,-6,-6,-14,-13
1482546755959771,4,6,19,29,1,-3,-19,-2
1482546755961744,-12,-13,-26,-24,-7,2,74,56
1482546755961744,16,11,9,7,2,-2,-28,-6
1482546755982791,35,5,5,-14,2,0,2,-21
1482546755982791,-53,-18,13,15,-3,3,35,19
1482546755983760,-13,4,-11,-15,-2,-4,-52,-33
1482546755983760,-8,5,13,4,-4,-7,6,4
1482546755995796,10,4,-2,-11,4,1,-7,-2
1482546755995796,0,-15,13,18,4,0,-10,-10
1482546756004746,11,8,-6,1,5,4,4,-2
1482546756004746,-20,-21,2,17,-7,-7,-5,-10
1482546756020323,-6,3,-8,-28,0,-3,-8,0
1482546756020323,9,8,8,3,-1,1,-5,-6
1482546756021821,1,-3,-4,-5,-2,2,2,3
1482546756021821,9,4,8,5,3,1,-4,-2
1482546756042917,-15,-10,0,5,-3,-3,-4,-2
1482546756042917,6,9,21,-3,-8,-3,1,-2
1482546756043893,0,-14,-27,-8,1,1,9,-6
1482546756043893,19,16,7,0,-1,-3,-31,-6
1482546756055925,-27,-5,3,1,-2,0,-26,-1
1482546756055925,-11,-13,9,13,6,5,35,31
1482546756064933,2,3,15,-4,-4,-3,-11,-53
1482546756064933,-9,-16,-17,-7,-4,0,43,32
1482546756080970,14,-4,0,-5,-1,-1,10,32
1482546756080970,-12,0,-2,1,-2,-6,-35,-27
1482546756085974,2,12,7,1,-1,-1,-5,14
1482546756085974,6,4,6,0,0,-2,14,1
1482546756103106,-19,-15,-7,-8,-2,-1,5,-9
1482546756103106,8,51,66,14,2,0,-5,-5
1482546756104080,-3,-30,-96,-19,-5,-4,-11,11
1482546756104080,1,9,8,5,5,7,-8,-19
1482546756116177,7,6,1,-24,-15,-7,-5,6
1482546756116177,10,3,-8,14,9,3,19,13
1482546756125141,-5,2,33,4,12,-1,1,1
1482546756125141,-19,-8,-18,2,12,10,-5,-7
1482546756139835,-6,-4,-9,-8,-11,-1,2,-9
1482546756139835,8,-7,-10,2,-2,1,-6,-11
1482546756141835,3,7,14,-13,-14,-6,-8,-10
1482546756141835,-18,-23,1,12,-3,-2,0,-5
1482546756162823,3,5,8,-20,18,2,-8,-2
1482546756162823,13,21,-17,19,-2,2,-12,-23
1482546756163823,-23,-36,2,0,-2,2,36,99
1482546756163823,6,24,9,-6,-7,-7,-17,-75
1482546756175836,-8,-1,24,0,-4,-6,13,34
1482546756175836,40,14,-3,-4,3,6,-12,-14
1482546756184867,4,4,-9,5,-3,-9,7,-20
1482546756184867,-5,-7,10,4,4,-3,-39,-16
1482546756198903,-11,-3,1,12,-1,6,43,13
1482546756198903,10,23,-14,-8,-1,0,1,-12
1482546756205853,4,-16,17,-5,-10,-6,-50,-27
1482546756205853,-4,-11,-5,-14,-7,-12,-26,4
1482546756222889,1,-6,-12,7,-2,3,-47,-40
1482546756222889,7,-2,1,-4,10,8,37,47
1482546756224392,-29,9,-1,-1,1,3,-25,-40
1482546756224392,-5,9,1,0,-3,-3,6,9
1482546756244431,-10,-21,-11,2,-2,-5,-44,-1
1482546756244431,-6,-6,1,-2,-6,-12,-79,-97
1482546756246428,19,23,17,10,13,19,21,13
1482546756246428,6,-5,-8,-2,1,5,32,30
1482546756259548,-3,6,3,6,-1,-1,30,-5
1482546756259548,-25,-17,-7,-10,-5,-3,-22,-21
1482546756266527,23,11,-3,0,0,-11,-88,-16
1482546756266527,-4,-7,3,-5,-9,-5,-23,-52
1482546756282564,-16,17,-3,18,5,6,59,13
1482546756282564,-30,-26,-14,-10,-2,-5,11,-1
1482546756283538,-9,-43,-6,-3,-1,1,23,22
1482546756283538,6,-1,27,0,-2,-5,-13,8
1482546756304584,15,-4,-39,3,7,-2,-31,-7
1482546756304584,2,7,14,15,0,1,21,16
1482546756306556,-3,14,0,-47,-17,-7,-4,-12
1482546756306556,4,5,-13,-2,-2,-1,-5,-4
1482546756319718,0,2,25,10,-1,-4,-14,-31
1482546756319718,-1,-10,2,3,-2,-4,26,57
1482546756326241,-18,0,1,11,1,1,-31,-83
1482546756326241,-2,20,7,3,-3,-1,-7,1
1482546756342257,-4,-10,-8,-8,2,6,46,47
1482546756342257,-3,-6,-8,0,-1,-3,-17,-9
1482546756344269,10,0,3,7,0,-2,11,18
1482546756344269,-2,3,-8,-4,1,0,-1,-7
1482546756365316,-15,-6,-4,-5,-5,-8,18,22
1482546756365316,19,2,2,-2,3,5,-93,-79
1482546756366257,13,6,-1,10,3,11,115,87
1482546756366257,1,2,-7,-3,1,-5,-39,-21
1482546756379322,14,4,4,-5,1,3,-9,-10
1482546756379322,5,0,2,-2,-4,0,28,4
1482546756386328,-4,-1,7,7,4,-1,-19,-7
1482546756386328,-17,-15,-15,5,3,2,19,6
1482546756402338,4,10,8,-5,-1,0,-13,-2
1482546756402338,0,-20,-3,-8,-7,-4,10,14
1482546756404283,2,6,-11,2,-2,-3,-11,-20
1482546756404283,-6,-2,1,-3,-1,-3,23,13
1482546756425360,-1,-23,7,3,-1,-1,-24,-10
1482546756425360,-20,18,1,-1,-3,-1,84,45
1482546756426876,-17,-10,1,-4,1,5,21,-13
1482546756426876,9,7,0,-2,-4,0,78,66
1482546756438991,-19,-7,6,1,3,-4,-85,16
1482546756438991,14,-9,25,18,-2,8,20,-39
1482546756445977,5,-3,-54,-21,1,1,7,6
1482546756445977,2,6,2,-9,0,1,0,14
1482546756462045,2,5,1,-6,-4,-4,-9,-19
1482546756462045,1,-4,-4,-5,-5,-7,3,30
1482546756464017,-1,6,17,15,-2,-11,-34,-25
1482546756464017,0,-8,-1,16,13,12,-7,-6
1482546756485005,13,16,-4,-13,-4,2,8,-3
1482546756485005,-7,-6,5,-22,15,0,-22,-4
1482546756486004,0,-5,-7,20,-4,-2,10,-2
1482546756486004,2,0,-2,-6,-3,-7,-10,-5
1482546756499047,-3,-4,3,5,-5,1,38,29
1482546756499047,-3,4,-24,-4,-6,-5,-11,-4
1482546756508020,-1,1,6,-11,-4,-2,26,14
1482546756508020,-2,-8,-3,-9,-4,-1,12,-2
1482546756522595,0,2,-6,15,6,0,-41,-34
1482546756522595,-4,-5,-7,-29,3,-1,-41,-4
1482546756524094,3,2,10,18,-1,-1,-19,-8
1482546756524094,-3,-5,9,-14,-4,-1,-19,-11
1482546756545317,2,1,-12,-1,-9,0,66,14
1482546756545317,0,6,-31,-6,4,-5,-51,-64
1482546756546286,2,-8,10,21,12,5,57,55
1482546756546286,1,0,-2,12,-1,5,58,23
1482546756560352,3,2,1,-7,-1,0,-21,-2
1482546756560352,18,4,7,5,-4,0,31,28
1482546756567307,-14,4,5,9,-11,1,-26,-22
1482546756567307,5,3,17,-33,2,-9,-22,3
1482546756582367,4,-10,-50,-19,0,3,25,13
1482546756582367,-14,-9,0,1,-13,-5,5,11
1482546756584341,2,4,5,0,-4,-5,-12,-10
1482546756584341,-5,2,27,48,-2,-2,-10,-8
1482546756605327,3,4,3,-34,2,8,4,-6
1482546756605327,3,15,32,13,10,5,10,20
1482546756606328,-4,-29,-82,-18,-4,-6,-24,-9
1482546756606328,-10,-1,15,-6,-17,-8,-37,-14
1482546756618901,2,9,32,32,7,-4,-1,-14
1482546756618901,-6,-6,-16,10,-7,-3,9,12
1482546756627921,6,15,39,-5,3,-1,1,2
1482546756627921,13,24,6,-2,9,5,-7,-5
1482546756642525,-14,-47,-70,0,-5,-3,-5,-13
1482546756642525,1,9,10,-5,-5,-2,9,11
1482546756644530,2,3,6,-5,1,-2,-31,-16
1482546756644530,-2,-7,-26,0,-5,1,5,1
1482546756664559,2,13,33,0,0,-6,-5,-8
1482546756664559,-4,-3,-9,-7,2,8,6,6
1482546756666560,-1,-3,3,10,7,1,-2,-6
1482546756666560,3,-7,-12,10,6,3,6,6
1482546756678567,0,6,23,11,-1,-2,4,-1
1482546756678567,-3,-14,-13,6,-11,-10,-6,2
1482546756687556,6,20,-14,-29,5,3,1,-3
1482546756687556,-8,-15,30,37,-5,4,4,-3
1482546756702679,0,8,-18,-9,6,-4,-14,-13
1482546756702679,4,-7,7,5,4,-1,-1,0
1482546756703623,-8,5,14,18,-4,-3,0,7
1482546756703623,2,6,58,-21,-7,-2,-5,0
1482546756725200,-14,-24,-38,0,-7,-2,-2,-8
1482546756725200,3,2,-47,-5,6,2,4,2
1482546756726700,7,7,29,-12,-8,-7,-2,2
1482546756726700,4,3,-26,15,26,6,1,-1
1482546756738949,3,9,31,-29,-14,2,1,1
1482546756738949,-3,6,79,27,14,3,0,3
1482546756747919,-3,-13,-60,34,9,4,-5,-7
1482546756747919,-8,-13,-94,-65,-30,-13,-6,-4
1482546756762103,5,14,47,9,-7,-3,0,2
1482546756762103,-8,-4,-55,6,-13,-2,0,-3
1482546756764076,5,12,36,-23,0,-1,0,-1
1482546756764076,0,-5,-2,44,9,0,2,3
1482546756785119,5,16,3,-48,-2,2,2,-1
1482546756785119,-2,12,47,-10,-14,-8,-6,-2
1482546756786092,-1,-15,-42,0,6,1,-3,-3
1482546756786092,4,5,-20,-13,-3,0,0,2
1482546756800102,-13,5,18,4,12,-2,-3,-4
1482546756800102,-1,-3,38,86,0,-2,-2,0
1482546756808108,-1,-2,14,-95,-9,-6,-4,-6
1482546756808108,8,0,17,-6,-5,1,1,2
1482546756822666,-4,-23,-14,29,-2,-3,-5,-3
1482546756822666,-10,-25,-87,-23,17,2,3,-1
1482546756824164,-5,-12,-52,18,-7,4,-3,0
1482546756824164,7,21,58,-15,4,5,2,4
1482546756844762,10,13,-10,-8,0,-3,-3,-5
1482546756844762,-8,2,24,-10,-16,-6,-4,-1
1482546756846775,6,15,48,68,-2,-2,-2,-4
1482546756846775,-20,-56,-91,-9,29,7,0,-1
1482546756858812,-4,-25,-47,-4,-10,-4,-1,0
1482546756858812,-2,14,25,2,1,2,0,-2
1482546756867792,6,13,7,-15,9,4,2,1
1482546756867792,-5,11,88,-6,-22,-11,-3,-3
1482546756882773,0,-10,-84,-18,-20,-1,-3,-2
1482546756882773,5,4,49,13,-4,-7,0,1
1482546756883773,-1,15,74,-9,11,6,4,2
1482546756883773,0,-8,-29,45,0,2,-1,-3
1482546756904843,-1,2,28,-2,-1,-4,-3,-1
1482546756904843,3,-5,-42,-50,-13,0,-1,4
1482546756906817,-8,-9,-22,58,16,1,-2,-2
1482546756906817,1,12,-21,-57,-9,-5,-1,-2
1482546756918976,1,1,-25,12,11,3,1,0
1482546756918976,1,14,33,14,-4,-1,1,0
1482546756934774,-4,-36,-9,-21,-20,-6,-2,-2
1482546756934774,5,19,48,19,10,4,2,2
1482546756942810,-6,-28,-60,28,5,1,0,-2
1482546756942810,3,18,9,-27,1,-1,-4,-2
1482546756943780,-1,-22,-18,-10,-5,-5,-2,-1
1482546756943780,1,1,-33,-29,-11,1,2,0
1482546756964836,0,20,86,29,22,1,1,0
1482546756964836,-4,-16,-37,-39,-9,1,2,-1
1482546756966824,-4,-4,-7,-10,7,0,-1,-2
1482546756966824,-1,-12,-69,-20,15,8,1,1
1482546756987842,4,23,90,65,-17,-6,-2,-1
1482546756987842,2,-8,-27,-38,25,6,1,2
1482546756988841,8,18,-10,-14,5,1,3,4
1482546756988841,-9,-17,-16,37,-16,-12,-9,-7
1482546757002862,-1,-2,-48,-32,-7,-1,0,0
1482546757002862,-1,0,5,23,4,-1,-1,-1
1482546757003826,-9,-13,-38,-38,-19,-6,-2,-5
1482546757003826,5,11,25,13,14,6,3,3
1482546757025373,0,5,15,7,-14,1,1,0
1482546757025373,7,-1,-78,-41,1,6,2,4
1482546757026901,-9,-6,106,73,-23,-18,-11,-7
1482546757026901,-4,-3,14,-18,-7,-9,-4,-2
1482546757039037,-1,3,8,-15,11,-1,-2,-2
1482546757039037,2,-4,-33,6,4,1,0,0
1482546757048029,4,7,-23,-27,3,7,4,4
1482546757048029,-2,0,15,-2,-2,1,-1,-3
1482546757062057,-1,-2,12,3,-4,-3,-3,-1
1482546757062057,-2,-8,-8,-16,-4,-5,-4,-2
1482546757069058,0,3,6,0,-5,-1,0,-2
1482546757069058,0,-2,23,10,5,-2,-1,-1
1482546757085073,2,6,23,-31,6,0,3,0
1482546757085073,-4,-4,25,-8,-8,5,0,-3
1482546757086058,-5,-8,39,36,-9,-11,-6,-4
1482546757086058,2,5,-11,-38,-5,-4,-2,-1
1482546757098186,0,-1,-2,3,7,7,4,1
1482546757098186,-1,1,15,4,5,1,3,1
1482546757107167,3,5,-20,-16,2,4,3,0
1482546757107167,0,0,-4,3,2,1,-1,2
1482546757122199,3,-1,31,2,2,0,-3,4
1482546757122199,-4,-17,-29,-22,-19,-13,-14,11
1482546757128703,-15,1,-20,-14,2,-1,-6,-13
1482546757128703,1,1,4,-1,-9,-4,13,7
1482546757145281,0,6,-3,-11,4,3,2,-4
1482546757145281,4,2,22,69,6,2,3,8
1482546757146294,6,3,7,-43,-1,4,-4,3
1482546757146294,-5,-1,8,14,-4,-6,-7,-6
1482546757158303,-4,-12,-26,-4,-4,-3,2,5
1482546757158303,-3,0,3,-11,0,1,-1,-12
1482546757167293,3,4,-9,-4,-1,2,-8,2
1482546757167293,-5,-1,-6,9,2,2,12,-10
1482546757181321,1,4,-1,0,1,-4,-7,-2
1482546757181321,4,5,2,38,1,-1,-1,-6
1482546757196332,-7,-4,56,-35,3,5,4,1
1482546757196332,-5,-12,-60,-27,-21,-12,-12,0
1482546757205383,-3,-8,25,9,-4,-5,-6,-5
1482546757205383,-3,8,15,37,-4,-7,2,-6
1482546757206384,5,5,-9,21,-8,1,4,5
1482546757206384,4,7,16,-21,7,4,-2,-1
1482546757227579,-3,-5,-49,14,5,6,3,1
1482546757227579,0,0,23,-12,-10,-1,-2,-5
1482546757229081,2,-5,-15,18,-2,-2,2,1
1482546757229081,-3,4,11,5,-10,-4,-5,-4
1482546757241648,-1,1,5,-6,-5,-6,-2,-4
1482546757241648,4,-3,2,0,15,2,3,5
1482546757248653,5,0,-10,9,-15,-5,-3,-1
1482546757248653,-13,-1,6,23,9,3,0,-2
1482546757272670,3,8,-4,-20,-3,2,1,1
1482546757272670,1,-4,2,-17,1,-1,-8,-1
1482546757273642,5,-6,-11,-14,10,-2,-1,-3
1482546757273642,-5,-5,19,11,-1,4,-5,-2
1482546757287683,-3,-4,-11,38,4,1,0,0
1482546757287683,-4,-2,-20,-82,-4,0,3,-3
1482546757288654,7,9,-19,-7,6,1,1,3
1482546757288654,5,2,62,60,-8,-5,-3,-1
1482546757301691,-6,-9,17,15,-5,-6,-8,-6
1482546757301691,-2,-4,-56,6,-1,-1,7,2
1482546757308638,-4,2,38,11,4,2,7,4
1482546757308638,5,0,-37,-18,2,3,-6,1
1482546757325212,-5,-2,6,-12,0,-3,4,-6
1482546757325212,-3,0,-7,3,-1,-2,-8,-9
1482546757326714,-4,-6,-20,-5,-2,1,-26,-4
1482546757326714,-2,-4,0,19,2,-2,41,13
1482546757347439,3,0,0,-18,-7,-3,-13,-2
1482546757347439,-2,-3,14,6,-1,1,-2,-5
1482546757349413,6,10,-5,7,5,8,39,14
1482546757349413,1,0,4,-10,3,0,-22,-13
1482546757361476,-7,-22,-53,-36,-6,-4,-1,-2
1482546757361476,7,4,19,11,-4,-1,-4,0
1482546757368483,-9,-3,11,8,-2,-3,-17,-9
1482546757368483,5,2,-14,-26,-1,-1,2,1
1482546757384493,-1,7,13,5,4,-1,-3,-2
1482546757384493,1,-3,-11,20,-3,2,5,1
1482546757386438,3,2,-1,14,8,0,5,1
1482546757386438,0,2,18,-35,1,5,-4,-1
1482546757407482,-2,-4,-9,6,0,-3,-5,-3
1482546757407482,-4,-3,11,-20,-4,-1,-6,-7
1482546757409463,-4,1,-2,17,-7,-3,4,-2
1482546757409463,0,-3,0,0,-2,-4,-5,1
1482546757422042,2,1,-6,-55,4,3,5,1
1482546757422042,-4,-4,0,15,4,1,-1,-2
1482546757429044,-2,-3,-1,-2,-4,2,-3,0
1482546757429044,1,-6,-34,-4,1,0,-8,-1
1482546757444639,3,3,28,18,-2,-1,2,1
1482546757444639,-4,-3,6,-1,0,-5,-20,-15
1482546757446626,3,0,-22,-34,-1,0,59,21
1482546757446626,0,0,-4,36,1,-2,-12,3
1482546757467655,2,4,-3,-13,3,3,23,11
1482546757467655,-7,-2,53,56,-11,-7,-7,-6
1482546757468641,-2,-2,-20,-20,2,-2,-18,-10
1482546757468641,0,0,9,-3,3,0,1,0
1482546757480665,-2,-1,-28,22,-7,-2,-3,-1
1482546757480665,-2,0,-14,-12,4,1,1,-1
1482546757489678,1,-1,0,-6,-3,-1,-11,-3
1482546757489678,0,1,-16,-8,1,0,3,2
1482546757504683,0,2,13,-11,-9,-2,-11,-5
1482546757504683,-1,-4,4,1,8,1,5,7
1482546757506665,-2,0,-6,14,-3,-2,-7,-4
1482546757506665,-3,5,4,0,3,2,3,-4
1482546757527702,4,1,15,5,-1,0,-1,-1
1482546757527702,5,-4,-14,-11,-3,-2,4,9
1482546757529200,-23,-11,14,2,-3,-2,-8,-8
1482546757529200,-2,-5,-4,6,-2,-2,0,-5
1482546757540846,-3,-3,10,-3,-1,0,-2,0
1482546757540846,5,3,-8,-6,-2,1,7,5
1482546757549854,8,4,-10,-9,3,-1,-9,-4
1482546757549854,-2,1,0,12,-6,-4,-1,0
1482546757564863,-3,0,21,-10,-6,-3,-11,-5
1482546757564863,-5,-2,2,-10,-2,-3,12,0
1482546757566847,-1,-3,12,12,-5,-3,-11,-4
1482546757566847,0,-1,-21,-5,-1,-1,-8,-1
1482546757587877,3,4,-9,1,6,2,12,4
1482546757587877,-4,-4,-3,11,2,2,-9,0
1482546757588878,4,5,-23,-62,6,4,4,2
1482546757588878,-2,-4,38,28,-7,-4,-2,-4
1482546757601891,-4,-5,-16,-10,-1,-4,-2,-4
1482546757601891,-1,2,-2,-15,1,1,-1,5
1482546757608884,1,-5,-11,12,-3,-3,-1,-2
1482546757608884,3,3,-10,-20,6,1,-2,1
1482546757624966,0,2,-8,1,3,3,0,3
1482546757624966,-4,0,23,3,-5,-1,-15,-10
1482546757626966,0,-6,3,7,-4,-4,12,3
1482546757626966,-2,-3,-2,3,-4,-2,10,3
1482546757647505,-2,1,-1,22,-4,-3,7,4
1482546757647505,-1,0,-2,-10,6,1,-1,-6
1482546757649502,0,-2,-4,3,-3,-2,-12,-4
1482546757649502,1,-1,3,-6,0,2,7,1
1482546757660589,0,1,0,-4,1,1,0,-2
1482546757660589,1,2,-12,49,-2,1,-1,-2
1482546757669632,-1,-2,2,-41,-4,-1,-15,-5
1482546757669632,1,5,8,1,1,3,28,3
1482546757699645,1,-5,2,8,1,0,-6,-2
1482546757699645,-4,-6,1,1,-1,-4,5,2
1482546757701619,-1,2,-13,18,-2,-2,-14,-13
1482546757701619,-1,-3,-8,-14,2,0,-8,2
1482546757707650,1,5,11,-20,0,-2,-4,1
1482546757707650,0,2,32,17,-6,-4,6,1
1482546757708624,-1,-4,-19,4,-6,-2,4,1
1482546757708624,1,-4,-17,-68,14,5,-7,-4
1482546757721167,-3,-2,19,30,-3,1,6,6
1482546757721167,-2,1,-13,-28,0,-2,-6,-8
1482546757736368,4,2,9,10,0,1,3,10
1482546757736368,4,-2,-12,25,-7,-5,-3,12
1482546757753402,-6,-3,-2,-11,-3,-5,-15,-54
1482546757753402,-6,-7,-39,-19,-7,-5,-7,-8
1482546757754346,-4,-5,-21,0,-3,-5,-8,-2
1482546757754346,-1,-1,17,12,2,2,12,-3
1482546757768356,5,4,-9,31,6,1,-56,0
1482546757768356,13,10,33,-44,4,9,86,25
1482546757769384,-10,-9,56,36,-5,-4,11,22
1482546757769384,1,0,-11,-11,-3,-5,-20,8
1482546757781478,-2,-2,-41,-9,5,3,13,10
1482546757781478,-4,-7,24,32,-6,-6,-19,-10
1482546757790434,5,7,-2,-5,6,1,-7,-12
1482546757790434,-3,-2,11,-1,-3,-3,-6,1
1482546757804496,-2,-2,8,-1,-5,-2,8,5
1482546757804496,0,-1,-29,6,5,-5,-22,-10
1482546757806468,-3,-1,15,-1,-13,1,14,5
1482546757806468,-2,-1,-4,16,-5,8,-12,-9
1482546757827519,1,-3,-14,-5,1,-2,6,-1
1482546757827519,-3,-1,-24,-9,-2,-3,0,9
1482546757829017,-3,-1,-18,13,-1,-7,-13,-11
1482546757829017,2,1,-16,-14,4,-2,6,-3
1482546757840626,-1,-2,24,-16,-2,5,8,8
1482546757840626,-3,-6,22,16,-3,-3,-7,0
1482546757849617,1,4,-5,-14,1,1,1,-6
1482546757849617,-1,-2,-22,1,-3,-2,-7,-4
1482546757864653,-2,-2,7,-14,1,-2,10,15
1482546757864653,-3,-1,-9,12,-2,2,-1,-2
1482546757866633,4,0,-23,-12,6,4,-5,-3
1482546757866633,-4,-3,44,11,-2,-4,4,-5
1482546757887699,1,6,13,27,-1,-3,2,3
1482546757887699,1,4,-10,-5,-3,-2,-10,-5
1482546757888648,-2,-4,19,15,3,0,1,8
1482546757888648,1,0,-5,-26,-2,-3,-26,-3
1482546757909713,1,2,-19,7,2,4,48,14
1482546757909713,0,-1,5,-22,-7,2,-9,-5
1482546757911665,3,3,-26,-53,7,4,7,-2
1482546757911665,-12,-16,7,57,-12,-11,-14,-9
1482546757925277,0,3,-11,-19,-1,-3,-15,-6
1482546757925277,0,1,-17,-33,2,3,5,6
1482546757926736,3,2,-3,27,4,2,-2,-4
1482546757926736,-2,-2,1,-18,-4,-2,6,-3
1482546757947619,-4,-5,-6,-4,0,-2,-8,-3
1482546757947619,1,-2,17,11,0,2,4,15
1482546757949564,6,4,23,15,0,0,7,14
1482546757949564,0,6,-4,-3,0,1,12,-6
1482546757960628,-10,-5,4,6,-5,-6,-27,-32
1482546757960628,2,6,46,7,8,0,-14,-7
1482546757969639,-3,-7,-72,-31,-2,2,1,-1
1482546757969639,3,2,59,-9,-7,-2,-3,13
1482546757984645,0,1,0,0,4,2,25,4
1482546757984645,10,16,108,106,11,4,-6,9
1482546757986617,-17,-23,-81,-71,-13,-3,0,17
1482546757986617,-6,-18,-30,10,-19,-14,-38,-56
1482546758007660,-14,-1,34,9,-3,-6,28,-4
1482546758007660,-4,2,20,32,-2,-3,-12,-3
1482546758008610,9,14,14,30,15,10,12,-4
1482546758008610,-4,-2,78,37,-3,-1,-5,6
1482546758021178,2,1,-83,-22,-2,1,-13,0
1482546758021178,-2,-10,-6,-14,-2,-2,3,-1
1482546758030169,4,4,-8,-43,6,2,-3,-3
1482546758030169,-3,-2,12,2,-6,-5,3,5
1482546758044736,7,4,29,36,1,2,1,6
1482546758044736,-4,-4,-41,-46,-3,2,-3,-1
1482546758046735,-1,1,10,3,-1,-5,0,-14
1482546758046735,3,9,-20,-23,14,9,0,3
1482546758067740,0,-2,-15,1,-1,1,2,-8
1482546758067740,-1,-7,-26,-60,-3,1,14,19
1482546758068739,2,0,78,39,-15,-13,-18,-9
1482546758068739,-7,6,-45,8,13,7,22,11
1482546758080865,1,-4,15,-4,-4,-3,-16,-1
1482546758080865,-2,0,-47,-29,5,1,-9,-16
1482546758089849,5,6,9,30,-2,0,2,2
1482546758089849,1,0,21,44,-4,-1,10,9
1482546758104882,1,1,-22,-25,4,-3,-12,0
1482546758104882,-6,-10,-7,-24,-4,-2,-2,-6
1482546758106834,-2,0,-20,-28,1,4,0,-2
1482546758106834,3,7,15,27,-3,3,4,2
1482546758127933,-2,-13,-58,8,-3,1,-4,4
1482546758127933,-1,-5,63,6,-6,-7,-1,-5
1482546758129408,-5,-2,2,26,-1,-4,-2,-5
1482546758129408,1,3,-60,-90,1,0,0,0
1482546758149567,3,0,53,54,-5,-2,-2,6
1482546758149567,1,1,-41,18,-3,0,9,5
1482546758151540,-4,1,46,11,8,-1,-7,-12
1482546758151540,-4,-3,-25,-46,-10,-5,-25,-7
1482546758164579,0,-2,17,-4,3,1,19,9
1482546758164579,-1,3,-34,0,1,-2,-18,-8
1482546758171556,-3,-6,29,28,-5,-5,22,8
1482546758171556,5,1,-44,9,8,2,11,11
1482546758187594,-3,-3,26,-12,-12,-7,-13,1
1482546758187594,0,2,-13,-23,-3,-1,-3,-2
1482546758188556,-3,-4,-13,13,-3,5,6,7
1482546758188556,5,2,29,-8,9,1,6,0
1482546758209610,0,-2,-25,-21,8,2,-8,-1
1482546758209610,-5,-8,-32,22,-14,-3,5,-3
1482546758211582,0,3,27,-7,4,-1,-37,-16
1482546758211582,-2,-4,7,25,-2,-4,18,-4
1482546758224630,10,3,2,-23,4,4,3,3
1482546758224630,-12,3,-5,35,-4,-11,-9,14
1482546758231144,-2,-2,43,-35,-5,-5,-26,-12
1482546758231144,-5,-7,-35,-19,4,3,5,-5
1482546758247272,7,9,48,32,-1,3,-36,9
1482546758247272,1,-4,-60,-26,6,5,20,14
1482546758249270,5,2,14,16,-5,-2,17,-5
1482546758249270,-10,-3,-4,17,1,-2,-24,-7
1482546758270274,-3,-5,-13,-18,-6,-4,18,-10
1482546758270274,3,1,21,-5,2,2,-14,0
1482546758271271,-2,-1,-27,-2,-1,-1,-17,-2
1482546758271271,8,0,2,1,0,1,15,2
1482546758284300,-14,-4,-8,-4,-2,-2,-1,-2
1482546758284300,-4,-2,19,0,-1,0,-9,-10
1482546758291299,3,-1,0,12,0,-1,4,4
1482546758291299,-2,1,0,-2,-3,-4,24,1
1482546758307315,-1,2,19,-14,1,-1,-15,6
1482546758307315,17,3,11,30,-1,2,2,-3
1482546758309314,-22,-12,-16,-5,-3,-3,4,-11
1482546758309314,7,3,-34,-2,4,3,-7,8
1482546758330415,4,-1,65,-3,-4,0,5,3
1482546758330415,-21,-7,7,-5,-3,-2,3,-6
1482546758331915,-4,-15,-41,37,-3,1,-11,-20
1482546758331915,-2,-10,20,-29,-10,-10,-13,-7
1482546758344009,7,1,33,15,-7,-4,9,2
1482546758344009,-16,3,5,-19,1,1,-8,-27
1482546758351015,19,8,-4,-4,1,3,24,69
1482546758351015,-16,4,0,6,4,1,-6,-59
1482546758367024,1,-9,-51,-4,1,1,1,-2
1482546758367024,5,-3,12,-6,-1,0,2,-9
1482546758368986,3,4,2,-11,0,-1,-9,3
1482546758368986,6,4,10,9,1,2,-1,21
1482546758390040,-3,6,1,-9,0,-2,4,-7
1482546758390040,4,1,-7,13,-2,0,1,3
1482546758391015,-10,-27,-38,-34,-2,-2,13,-10
1482546758391015,5,7,34,13,-8,-7,-20,21
1482546758404049,-12,-8,-31,-26,-7,-4,-7,-16
1482546758404049,6,0,-15,-3,5,-2,5,6
1482546758411028,3,11,26,-20,1,4,4,-6
1482546758411028,0,-7,-19,13,3,7,8,3
1482546758427627,-3,1,1,2,2,0,-11,0
1482546758427627,0,-3,-22,-3,-3,-4,-5,-3
1482546758429078,-1,7,27,1,-3,-6,16,-15
1482546758429078,-3,-3,7,-5,-9,-7,2,24
1482546758449719,2,4,-12,4,-2,-3,0,-2
1482546758449719,-6,-4,13,13,8,5,-3,-6
1482546758451696,-1,4,15,-2,-15,-2,-7,-6
1482546758451696,-2,-3,-21,29,1,-3,-2,0
1482546758464738,4,-2,-4,-36,19,8,1,-4
1482546758464738,4,2,104,-3,-7,-11,-9,0
1482546758470762,-6,-7,-82,-26,-8,-2,-4,-6
1482546758470762,2,2,48,30,15,5,10,3
1482546758487746,0,1,-6,7,-19,-7,1,5
1482546758487746,7,6,13,-8,12,9,15,5
1482546758488745,9,2,-23,5,3,-1,-4,6
1482546758488745,-17,-13,-10,-17,-8,-5,-12,-13
1482546758509789,0,-1,42,34,5,-8,-1,-2
1482546758509789,1,8,-20,-39,-7,1,7,1
1482546758511762,-11,8,23,3,-13,-9,-19,-2
1482546758511762,0,-12,-19,-6,9,3,4,-1
1482546758524338,2,5,-19,3,0,3,2,5
1482546758524338,0,-7,-36,24,-7,-3,3,3
1482546758531368,2,-2,2,-35,-13,-10,-12,-9
1482546758531368,6,9,79,27,17,5,-4,2
1482546758547970,-23,-11,-106,23,-2,-1,1,-4
1482546758547970,-3,-11,-26,-26,1,-2,-6,-12
1482546758548944,6,1,40,34,-22,-2,4,-4
1482546758548944,5,0,-5,4,-16,-7,0,-4
1482546758570012,7,5,46,-11,-8,4,4,11
1482546758570012,-1,-2,-38,32,2,-1,-4,-3
1482546758571985,-4,1,39,2,4,10,9,6
1482546758571985,10,-2,-22,-18,8,6,7,7
1482546758583996,-3,5,-5,42,14,4,5,-2
1482546758583996,-12,-13,-58,-41,-21,-17,-33,-18
1482546758599977,-2,6,3,13,10,-10,6,7
1482546758599977,10,10,20,11,-3,6,13,8
1482546758607037,4,-10,24,-44,0,1,1,1
1482546758607037,0,9,-32,46,3,8,15,5
1482546758608982,-9,-18,21,-28,30,9,-6,-1
1482546758608982,5,1,-19,-52,-34,-12,-15,-5
1482546758630077,-3,-5,-3,49,-1,-3,2,-2
1482546758630077,4,7,68,-9,23,14,14,-6
1482546758632077,5,-2,-49,2,-17,2,6,18
1482546758632077,-13,7,10,61,23,-5,-15,-14
1482546758643209,13,-4,-13,-99,-1,0,-8,4
1482546758643209,-15,-17,21,-10,-9,-5,9,9
1482546758652220,-1,6,-52,49,-1,-7,-8,-27
1482546758652220,-15,-16,-28,-27,-21,-2,9,1
1482546758667256,-1,7,80,6,-5,4,1,-7
1482546758667256,18,5,-57,20,33,8,13,19
1482546758669207,8,18,16,15,9,9,9,3
1482546758669207,-3,-14,10,-26,-8,-8,-32,-33
1482546758690272,-19,-3,-9,-20,-23,-12,-28,-3
1482546758690272,-3,-7,41,31,-22,-8,16,7
1482546758691244,-8,-3,9,46,38,-1,4,10
1482546758691244,16,16,8,-65,-3,15,23,20
1482546758703283,1,-3,-57,67,20,1,-1,10
1482546758703283,7,6,5,-37,51,12,-23,-58
1482546758712262,11,13,40,-74,5,13,4,26
1482546758712262,-9,-1,-4,23,-17,-21,-18,-3
1482546758727781,-12,-21,-5,-19,-17,-3,-22,-20
1482546758727781,6,11,-29,11,-34,-3,43,46
1482546758729292,0,-19,-1,-5,-7,0,7,-45
1482546758729292,4,7,8,-6,17,2,-22,8
1482546758749394,-2,4,5,1,-9,-7,-99,-47
1482546758749394,-22,-20,2,7,-13,-17,73,42
1482546758751377,-5,-14,-37,-36,-21,11,22,22
1482546758751377,14,9,-24,49,30,25,38,9
1482546758763501,4,6,35,-17,2,-12,-29,15
1482546758763501,3,13,99,81,-31,-29,-68,4
1482546758772451,-3,8,-85,-94,-20,-5,-3,-3
1482546758772451,-9,-2,49,113,50,15,23,5
1482546758787518,-5,-2,26,-83,12,18,35,-18
1482546758787518,3,1,-54,-56,13,4,-31,-30
1482546758789470,-17,-7,38,24,-25,-26,-42,-12
1482546758789470,4,6,3,-17,-31,-15,-23,4
1482546758809534,-9,-16,-74,0,-17,-5,27,-5
1482546758809534,1,-4,44,-14,1,1,-114,-11
1482546758811506,5,3,18,37,13,14,94,53
1482546758811506,-5,-12,-31,-27,-9,-1,-65,-28
1482546758824064,17,15,62,43,20,12,16,40
1482546758824064,-3,-1,-80,-34,-12,2,21,3
1482546758832571,-5,-12,-10,58,-4,-13,-60,-27
1482546758832571,7,2,40,-51,1,-2,8,10
1482546758847759,-1,2,-63,18,-6,-4,26,2
1482546758847759,-1,-2,21,-17,-8,1,-11,-15
1482546758848741,-3,4,42,14,-13,-9,-15,-18
1482546758848741,13,0,19,29,22,13,43,19
1482546758869775,-10,3,16,-38,8,3,-5,-12
1482546758869775,-2,-8,-11,18,-5,-3,4,-19
1482546758871774,1,6,13,-13,-4,-5,-8,5
1482546758871774,-9,-1,-17,-12,-33,-13,-29,-7
1482546758883824,8,0,-6,17,8,-1,32,19
1482546758883824,5,2,36,-11,5,3,-61,-21
1482546758892802,2,-3,23,12,9,9,71,5
1482546758892802,-11,-1,-88,-10,3,0,-32,3
1482546758907814,-5,-4,45,12,-12,-8,50,20
1482546758907814,12,0,-3,-13,-1,1,16,16
1482546758908788,-19,-7,-13,0,6,-6,-88,-36
1482546758908788,6,4,23,5,-3,-2,50,1
1482546758930373,-5,-6,-32,2,-4,-1,1,5
1482546758930373,21,6,11,0,-5,2,1,10
1482546758931860,16,4,12,4,19,8,-51,7
1482546758931860,-35,-19,-22,-26,-12,-9,68,-20
1482546758943604,29,3,-1,5,-11,-11,-64,0
1482546758943604,-23,3,5,-12,4,-5,41,10
1482546758952555,-4,-2,20,15,-2,-4,-22,-13
1482546758952555,-35,-6,-30,-14,-3,1,-4,-18
1482546758966620,48,6,-7,5,1,-1,-39,65
1482546758966620,-21,-7,-34,18,5,4,26,-23
1482546758973625,2,-8,19,-4,-4,0,22,16
1482546758973625,6,2,-25,-29,-1,1,-21,-10
1482546758989636,-33,-1,27,22,0,0,4,-38
1482546758989636,24,-1,-24,-30,1,2,6,34
1482546758991581,-48,0,-6,17,0,-1,3,9
1482546758991581,-17,6,52,-3,-5,-3,-17,-23
1482546759003589,-10,-14,-32,-3,3,1,8,-15
1482546759003589,-20,-4,-5,-4,-1,-2,3,-11
1482546759012598,36,14,-6,-4,9,6,10,-7
1482546759012598,7,-1,-38,-19,-3,-3,-10,21
1482546759027199,-14,2,2,5,-1,-2,13,-10
1482546759027199,-2,-3,12,5,-4,0,-7,-15
1482546759033687,5,7,-14,-19,7,1,1,13
1482546759033687,20,2,-13,21,-1,0,-2,9
1482546759056895,-6,-4,35,-26,-4,0,4,-13
1482546759056895,3,8,-17,-2,3,0,-2,9
1482546759058895,2,-7,10,6,-4,-3,0,-8
1482546759058895,5,-3,4,-16,1,-3,-3,7
1482546759071944,-3,3,-11,4,-2,-4,3,-16
1482546759071944,-3,-1,-3,6,0,6,1,3
1482546759078925,2,-3,-17,0,11,1,0,0
1482546759078925,6,-3,3,5,-7,-4,0,-3
1482546759086956,-1,6,-16,4,1,1,-2,0
1482546759086956,-4,-5,39,-15,-9,-5,-4,-7
1482546759094024,1,-5,-22,20,-8,-1,-3,-8
1482546759094024,4,0,47,-30,-4,-5,-9,-9
1482546759110062,-3,-4,-47,25,0,3,3,7
1482546759110062,-1,4,5,-14,-8,1,4,4
1482546759111065,5,-1,-3,-9,-4,-6,0,-4
1482546759111065,-1,4,-4,6,-4,-2,-4,1
1482546759132632,9,-7,15,-2,-4,-6,-65,-24
1482546759132632,-27,-14,-3,10,5,2,65,18
1482546759134131,-5,12,0,5,1,0,-25,-1
1482546759134131,15,-9,-11,3,1,2,7,-6
1482546759147156,8,1,0,-7,0,-3,-28,8
1482546759147156,26,8,-7,13,2,1,-1,1
1482546759153167,3,-8,-3,-12,-5,-6,-2,1
1482546759153167,-6,-1,0,3,-2,-3,0,6
1482546759170178,-7,-10,0,-1,4,0,0,-15
1482546759170178,2,1,-3,-2,-3,0,-5,-8
1482546759171175,12,8,-1,-6,1,1,21,15
1482546759171175,-5,4,-2,6,5,8,17,4
1482546759192271,-13,-4,5,5,-2,-3,0,-2
1482546759192271,-10,-5,8,2,-3,-3,-11,3
1482546759194272,-5,-1,-19,-8,-3,-3,-22,-18
1482546759194272,4,-7,-20,6,-1,-2,-9,5
1482546759207278,-2,9,11,-4,2,4,32,4
1482546759207278,10,5,6,5,-3,-8,-25,-1
1482546759215285,8,-13,3,-4,4,5,17,-5
1482546759215285,-6,8,35,11,-2,-3,-17,2
1482546759230290,6,-19,-29,-8,-1,3,18,6
1482546759230290,-12,-7,-6,6,-3,-3,-17,-14
1482546759231817,-7,-1,22,-7,-1,1,11,7
1482546759231817,-3,-1,-14,-16,-3,-4,-13,-14
1482546759252002,36,10,-1,8,1,2,35,12
1482546759252002,-40,-8,3,9,2,-5,-13,-1
1482546759253972,-17,-1,-7,12,1,-1,-9,-17
1482546759253972,-5,-6,4,-19,-1,1,16,5
1482546759266954,-7,6,10,6,-11,-6,2,-5
1482546759266954,14,5,-14,6,14,7,-3,-2
1482546759273989,2,6,38,29,10,6,12,8
1482546759273989,-1,-9,-83,-67,-1,1,-24,-3
1482546759290027,-13,-4,3,-41,-19,-11,0,-4
1482546759290027,6,-1,-3,-24,-9,-2,3,4
1482546759291971,-3,0,42,28,5,1,-11,-3
1482546759291971,7,3,-4,46,-1,0,4,-6
1482546759312042,3,16,49,-6,-5,-1,-1,-2
1482546759312042,3,11,-73,25,4,2,2,-3
1482546759314015,2,-4,-28,-68,-11,-5,0,3
1482546759314015,-9,-6,-2,21,4,-2,1,-4
1482546759327118,-8,0,-10,2,4,-1,-25,1
1482546759327118,0,-2,39,8,-1,3,15,-9
1482546759333583,-7,-9,-26,6,-3,-1,-12,-5
1482546759333583,14,9,-3,1,0,-6,-34,-41
1482546759350174,-27,-7,13,10,-3,0,42,40
1482546759350174,3,-4,0,-6,4,4,-19,3
1482546759351169,9,-2,-9,-7,-8,-11,-2,14
1482546759351169,-4,-8,24,1,-3,0,14,19
1482546759372189,3,12,4,9,9,8,1,-3
1482546759372189,4,-6,-6,-12,-9,-7,-1,-9
1482546759374186,-5,3,-10,-7,-1,3,0,6
1482546759374186,-1,-4,20,8,1,1,-9,3
1482546759386200,4,5,-22,3,1,-2,4,-10
1482546759386200,1,5,21,-3,-5,1,18,14
1482546759395201,6,0,-76,1,-1,-1,-17,-11
1482546759395201,-4,-3,51,-1,2,-4,-3,3
1482546759410215,0,-3,-15,6,4,4,12,-9
1482546759410215,-10,-7,23,-17,-12,-9,-19,-10
1482546759411212,-6,2,6,9,1,1,12,-2
1482546759411212,13,17,-7,7,4,1,1,5
1482546759434238,9,-34,-77,-19,-6,-7,-9,-5
1482546759434238,21,52,12,-1,-7,-7,-18,-8
1482546759435752,-11,23,-19,2,0,0,-7,0
1482546759435752,-14,-4,29,7,-10,-6,-14,18
1482546759445777,-16,-5,16,4,7,6,14,-8
1482546759445777,6,-13,-2,-15,11,4,-27,-11
1482546759454781,13,-4,6,11,-9,2,14,19
1482546759454781,10,9,-7,-58,2,5,76,36
1482546759469792,6,3,15,61,-8,-5,-19,-12
1482546759469792,-8,-14,-13,-4,2,-2,-38,-52
1482546759471792,13,6,15,-10,-1,-3,5,31
1482546759471792,6,2,6,20,2,3,1,16
1482546759492806,-18,-28,-46,-14,3,2,2,-49
1482546759492806,-5,-3,10,-8,-2,-3,-3,5
1482546759493807,-3,-29,6,8,-5,-10,-71,-37
1482546759493807,-16,-5,-11,14,6,10,44,29
1482546759505815,3,25,58,-12,4,1,-5,6
1482546759505815,33,0,0,15,-3,0,13,29
1482546759522905,-8,-17,-9,-12,1,-2,-4,-7
1482546759522905,6,11,50,5,-3,-1,-20,-3
1482546759530381,-18,-30,56,-7,4,1,-47,-45
1482546759530381,1,-11,-86,-21,-11,-5,80,45
1482546759531899,-18,-6,12,1,-2,-4,-5,15
1482546759531899,-56,-61,-10,3,0,-3,-32,-47
1482546759552735,3,13,5,11,1,2,88,43
1482546759552735,10,3,-11,-3,-8,1,-3,-14
1482546759553680,7,18,22,16,13,9,-59,-64
1482546759553680,24,5,-29,-38,-7,-9,30,13
1482546759565744,-8,2,9,-5,-1,0,-52,12
1482546759565744,-1,-43,-20,12,0,-1,-1,5
1482546759574722,7,-5,17,-36,-7,-1,41,13
1482546759574722,13,13,2,41,8,30,-69,23
1482546759589760,5,5,-10,2,2,-20,100,87
1482546759589760,-4,16,19,-12,-5,-13,51,15
1482546759591733,-8,-1,9,25,-1,-5,-31,-10
1482546759591733,20,7,-39,-23,-2,-6,2,-13
1482546759612751,-9,-5,7,-8,5,11,-31,-6
1482546759612751,-19,2,8,6,5,2,-19,-2
1482546759613742,-5,8,2,-2,-11,-2,44,11
1482546759613742,0,-21,-9,-17,-8,-9,22,-11
1482546759626348,13,47,-20,-25,-4,10,21,-15
1482546759626348,-24,-32,14,4,3,-6,-95,-42
1482546759635299,34,85,3,13,5,9,101,54
1482546759635299,32,7,5,15,7,0,59,40
1482546759650089,-12,-15,-6,-12,-8,-13,-128,-113
1482546759650089,-14,2,10,19,4,11,65,18
1482546759651036,-5,-18,-2,-14,-8,-6,-65,-11
1482546759651036,13,6,4,13,7,3,23,-23
1482546759672102,42,25,-16,26,7,0,0,8
1482546759672102,-40,10,-23,-90,-11,-1,-7,6
1482546759674076,-11,-16,3,1,-3,-2,-30,-14
1482546759674076,-17,16,5,16,17,-7,-2,5
1482546759686114,-1,-32,-14,-6,-12,0,17,20
1482546759686114,5,63,1,-10,-7,1,-35,0
1482546759695090,-1,19,-15,-11,9,6,-7,42
1482546759695090,-6,-8,-1,3,-10,-6,-27,3
1482546759710130,0,16,19,22,7,4,33,20
1482546759710130,17,-5,14,19,7,-2,-22,-24
1482546759711074,-18,-29,-10,5,-25,-12,1,-42
1482546759711074,-5,4,-8,-15,-7,-1,-83,-26
1482546759732631,7,0,-11,25,11,4,37,52
1482546759732631,7,4,7,-48,-2,0,26,3
1482546759734119,31,-10,-1,23,6,-2,-49,-16
1482546759734119,-56,-34,8,3,-8,-2,53,37
1482546759746242,-21,9,-4,2,-15,-14,-35,-41
1482546759746242,6,-20,6,34,22,6,16,36
1482546759755236,-5,-5,-5,15,-2,4,-18,-64
1482546759755236,12,9,-4,-16,1,5,-30,-6
1482546759770256,6,-18,-18,-32,6,2,-41,-15
1482546759770256,-16,24,38,51,-2,-2,26,9
1482546759771259,-2,-18,-17,-11,6,-4,-22,-27
1482546759771259,44,5,7,14,-3,0,65,34
1482546759800321,-22,-11,-18,-12,-11,-5,-32,-15
1482546759800321,10,-15,7,24,4,2,-27,-25
1482546759801264,-9,-3,1,-74,0,2,-2,12
1482546759801264,0,12,-29,25,-6,-4,14,-26
1482546759806323,7,3,-3,-47,-1,-1,3,3
1482546759806323,-11,-10,-3,8,-5,0,22,46
1482546759815280,13,8,22,-6,0,-4,37,43
1482546759815280,-11,-10,-34,-8,-2,2,-23,-24
1482546759830360,0,-11,14,5,-8,-5,-26,-10
1482546759830360,0,-12,-39,-16,3,-1,-34,-19
1482546759831861,-30,19,34,27,-3,-1,110,29
1482546759831861,-5,4,0,-8,2,-1,4,-7
1482546759852485,9,-1,10,2,-3,0,-9,-15
1482546759852485,21,-1,-6,9,-4,-5,-16,-4
1482546759853483,-25,-15,-16,25,-1,-3,-41,5
1482546759853483,-2,7,14,-56,-6,-4,-11,-11
1482546759866523,2,2,-7,6,2,1,46,12
1482546759866523,19,-1,15,1,-1,-3,-67,-35
1482546759875505,39,-13,-7,16,3,-1,12,38
1482546759875505,-63,-11,-14,-3,0,9,20,14
1482546759889564,-1,-12,13,25,0,-4,-9,14
1482546759889564,6,1,9,23,1,1,7,-6
1482546759891522,6,-3,-8,-57,-2,-1,2,-6
1482546759891522,7,-3,10,16,-11,-6,-14,-7
1482546759912581,-5,7,-6,-4,13,9,15,1
1482546759912581,1,2,1,25,0,7,31,23
1482546759913529,-8,-4,-43,-51,7,3,37,-48
1482546759913529,-13,-24,49,-11,-34,-28,-41,-38
1482546759926122,-1,0,2,43,8,2,3,15
1482546759926122,2,5,-1,-53,-2,0,24,6
1482546759935101,1,-2,-10,40,10,5,-5,4
1482546759935101,3,-1,-54,-30,3,-1,-26,-17
1482546759948810,-3,-8,39,35,-13,-7,1,-2
1482546759948810,-12,-7,19,-3,-2,-5,15,5
1482546759957761,-2,4,-3,4,-2,0,2,1
1482546759957761,12,14,-15,28,10,5,-11,-1
1482546759972888,3,-2,2,28,4,5,2,1
1482546759972888,-10,-6,-82,-75,-2,0,6,7
1482546759973916,-11,-36,88,-9,-20,-12,0,2
1482546759973916,2,1,52,56,-3,-7,-1,-10
1482546759985949,2,6,-36,-10,2,-4,-4,2
1482546759985949,3,4,4,39,5,0,1,-1
1482546759994904,2,-2,7,-40,-11,7,1,2
1482546759994904,7,-6,-34,21,17,9,-8,0
1482546760008964,-7,5,3,-62,-3,-4,1,-5
1482546760008964,-5,-18,34,36,-2,-4,-6,14
1482546760015971,3,18,-41,-15,6,4,-6,15
1482546760015971,-3,-20,-6,-1,-19,-7,0,-8
1482546760032622,-7,2,7,0,-1,-3,-35,-11
1482546760032622,4,11,13,1,-6,-7,21,-7
1482546760034120,5,17,-30,53,19,11,20,10
1482546760034120,2,11,119,-42,-11,7,-8,1
1482546760054717,-7,-19,-68,-74,-18,-9,5,1
1482546760054717,-4,6,-21,-15,-9,-3,-21,-15
1482546760056715,-4,-8,9,42,12,-4,-9,-7
1482546760056715,15,48,41,37,11,2,6,2
1482546760068728,-8,-39,-57,15,10,0,-1,-5
1482546760068728,-11,6,63,24,4,8,3,-3
1482546760075732,2,6,-31,0,-2,-4,-2,-1
1482546760075732,4,25,30,-39,-9,-3,-4,-1
1482546760092746,-2,-3,-34,-28,-9,0,2,3
1482546760092746,5,3,7,27,7,-1,-1,8
1482546760093742,-4,-9,20,22,1,0,0,-1
1482546760093742,4,4,-29,5,10,-1,-20,12
1482546760114761,5,16,49,26,-2,5,41,5
1482546760114761,0,-15,-9,-41,-7,2,1,-3
1482546760116772,-6,-3,17,-9,-6,-7,-14,-7
1482546760116772,-4,-9,-37,-17,-4,-5,-9,-5
1482546760129274,1,12,31,26,6,5,5,2
1482546760129274,-8,-22,-66,-9,2,-3,-2,-3
1482546760136280,-3,1,15,-17,-16,-6,-4,-2
1482546760136280,-2,-19,-71,28,14,1,6,-6
1482546760152215,1,25,34,3,-10,-1,-16,-1
1482546760152215,-1,-4,-10,-7,-7,1,8,1
1482546760154215,1,1,4,-6,-5,-3,-6,-4
1482546760154215,-1,-9,-10,25,7,-2,3,-2
1482546760175285,2,5,25,-41,-8,-1,-4,1
1482546760175285,2,5,12,-1,-6,-5,-4,-1
1482546760176252,-10,-11,-35,-6,-1,-1,-5,-5
1482546760176252,-1,-10,-3,16,5,3,4,-1
1482546760189289,5,4,-14,-31,8,4,10,-6
1482546760189289,-1,2,3,6,1,-1,-14,-6
1482546760196294,-3,-1,3,-16,-8,-5,8,3
1482546760196294,-6,-8,-5,-3,0,-2,-29,3
1482546760212306,-3,-9,17,11,-2,0,31,12
1482546760212306,8,-1,-20,-2,-6,-3,-1,0
1482546760214278,4,2,-9,-8,21,12,-20,-8
1482546760214278,-1,5,8,-14,-3,1,34,5
1482546760235287,10,-2,-8,70,-5,-6,-14,-7
1482546760235287,-6,-3,2,-54,3,-1,-9,-8
1482546760236794,1,3,-8,16,-2,-2,11,13
1482546760236794,9,-3,-27,-17,0,2,-1,-4
1482546760248897,-11,-10,19,-21,1,1,-10,-1
1482546760248897,-7,-5,26,60,-6,-8,3,-7
1482546760255902,0,0,-2,-3,-7,-2,-9,1
1482546760255902,0,-2,-20,-20,-8,2,0,-6
1482546760271911,1,7,-1,0,9,4,3,3
1482546760271911,-2,-3,12,25,31,7,-4,4
1482546760273896,-3,-6,-28,-15,-3,-2,0,-5
1482546760273896,-3,-1,6,18,-7,-3,-9,-18
1482546760294929,-2,1,-3,-9,-14,-3,-7,3
1482546760294929,1,4,8,-32,-7,0,4,2
1482546760296928,-1,0,20,66,3,0,-3,2
1482546760296928,-5,-5,1,1,-1,-2,3,-22
1482546760308952,0,0,10,-5,-2,-2,1,3
1482546760308952,-5,0,4,15,-8,-2,-37,-5
1482546760317932,-3,-1,4,-10,19,6,51,0
1482546760317932,-1,2,13,1,-17,-4,-19,-1
1482546760332556,-1,-4,-25,-13,12,-1,0,-4
1482546760332556,1,-1,-6,6,-13,-8,9,0
1482546760334500,0,0,19,4,-7,1,-29,-6
1482546760334500,1,2,-9,-21,15,9,10,10
1482546760355185,-2,3,-6,3,-10,-5,-6,-1
1482546760355185,0,-1,-11,5,14,2,10,3
1482546760356159,-4,-1,45,7,-33,-18,-10,-7
1482546760356159,-1,0,2,-5,-2,-5,5,4
1482546760368224,-2,-2,-33,-19,-12,0,-3,-2
1482546760368224,-3,-3,-1,-8,-2,5,6,-7
1482546760377208,2,2,-17,-28,9,2,-4,8
1482546760377208,0,3,-6,2,-7,-4,9,8
1482546760392240,-3,-1,10,-14,-1,-3,-14,-12
1482546760392240,-2,0,1,28,6,4,10,5
1482546760394192,5,-2,-9,-12,23,7,-2,-5
1482546760394192,0,-3,-24,-64,-2,1,14,-13
1482546760415262,1,-1,7,6,-10,0,-8,0
1482546760415262,-10,-3,8,2,-6,-6,-1,-3
1482546760416232,17,-3,-15,7,-5,-1,-21,-14
1482546760416232,-4,-2,7,19,15,5,8,13
1482546760428948,-1,-3,28,30,11,3,12,3
1482546760428948,1,4,6,-1,-18,-8,0,-3
1482546760436911,-9,-5,-20,-28,-6,-7,-21,-9
1482546760436911,0,2,-13,-10,2,0,-15,-2
1482546760452184,1,-1,-19,25,0,-2,3,15
1482546760452184,2,-2,20,-33,-6,-1,-5,5
1482546760454131,-8,-3,0,16,-2,2,10,-10
1482546760454131,1,1,-21,0,-6,2,-15,-14
1482546760475203,-1,2,-13,-14,12,6,4,-3
1482546760475203,2,-2,-11,-28,-12,-6,0,3
1482546760476146,-1,4,37,20,32,3,5,-1
1482546760476146,-6,-7,-26,9,-4,-1,0,2
1482546760488210,-3,0,-8,-20,-17,-7,-13,-6
1482546760488210,3,1,23,52,3,3,3,-1
1482546760497161,0,-1,5,-6,-18,-5,2,18
1482546760497161,-2,-1,3,14,1,-2,7,4
1482546760512226,-8,0,31,31,-3,-10,-1,-4
1482546760512226,8,-4,-35,-89,0,-3,-68,-7
1482546760514173,-16,-6,-7,-10,-10,2,73,9
1482546760514173,8,2,13,12,3,-3,-41,1
1482546760535262,0,-2,-9,-6,4,5,47,30
1482546760535262,-2,5,8,16,5,1,-3,-9
1482546760536760,0,2,-8,5,-1,4,-26,-22
1482546760536760,-2,0,-7,-31,0,-5,-25,-38
1482546760548403,-1,-3,43,44,-12,-5,-5,-15
1482546760548403,-8,-3,-14,9,-2,-2,23,3
1482546760557482,4,4,-21,-42,-27,-4,-13,1
1482546760557482,2,-1,-25,57,34,1,-12,9
1482546760572636,5,3,33,-99,31,15,34,6
1482546760572636,-5,-10,-21,34,-27,-5,11,-1
1482546760573581,0,1,-16,6,7,-1,-5,-4
1482546760573581,-1,-1,30,32,-9,-4,-17,5
1482546760594651,-2,0,-21,7,-9,-5,-19,-5
1482546760594651,2,0,-11,-15,2,6,12,7
1482546760596597,0,3,48,-17,7,-2,7,7
1482546760596597,1,-3,-10,0,12,13,11,3
1482546760608662,-3,-9,-22,3,-18,-13,-26,-12
1482546760608662,2,4,9,12,33,4,16,2
1482546760617613,3,2,-1,-12,-17,-5,-19,-1
1482546760617613,-5,9,33,30,-20,-13,28,6
1482546760632741,-8,-14,-18,-1,3,2,-35,-15
1482546760632741,9,0,-5,5,-1,-6,-100,-21
1482546760634213,-3,6,-24,-3,12,12,89,79
1482546760634213,9,-1,71,-7,0,4,8,13
1482546760655283,-23,-1,-77,12,-1,-3,8,0
1482546760655283,-5,0,13,2,-8,-5,-11,-22
1482546760656309,-2,-6,28,62,0,-9,-33,-10
1482546760656309,3,1,-31,-41,-10,-1,12,7
1482546760668346,10,9,32,-16,4,5,-16,-8
1482546760668346,6,-2,-50,36,0,-3,25,16
1482546760683453,5,-1,-6,-26,-9,-5,-12,-16
1482546760683453,-7,-13,-11,-19,7,5,11,2
1482546760692458,-3,-3,11,17,6,-4,-5,-11
1482546760692458,1,6,-7,-34,-6,2,18,5
1482546760694430,-2,-5,41,46,5,2,-6,-13
1482546760694430,-9,-3,-9,-1,-24,-14,-22,-23
1482546760715448,7,7,-1,-5,10,2,-34,2
1482546760715448,9,16,-16,-25,-1,4,48,30
1482546760716446,-6,-31,28,63,-8,-5,45,1
1482546760716446,-11,-25,-21,-48,-15,-9,13,7
1482546760729013,2,1,15,12,12,1,-23,-29
1482546760729013,-6,3,6,-12,3,4,8,3
1482546760737517,14,6,0,-34,3,-2,-56,-43
1482546760737517,12,8,7,60,6,0,11,23
1482546760752091,-6,0,-27,-42,-11,7,9,10
1482546760752091,-4,-3,18,18,-10,0,-7,-12
1482546760754059,-9,2,-27,-35,18,4,-6,6
1482546760754059,4,7,-1,-1,-8,-13,-10,-14
1482546760775107,10,6,-3,29,17,5,18,16
1482546760775107,-9,-8,32,-14,-13,0,-10,-2
1482546760776057,-6,-3,-13,-26,-21,-4,9,11
1482546760776057,-1,6,4,-9,-4,0,-36,-20
1482546760789091,18,17,8,60,41,12,38,35
1482546760789091,-28,-44,-85,-44,-38,-19,26,-7
1482546760797220,-3,8,37,36,-12,-11,-17,-19
1482546760797220,-4,2,-1,0,23,8,-7,-8
1482546760820348,3,-2,-2,-12,-4,-4,-5,-8
1482546760820348,16,16,13,21,23,9,-18,-15
1482546760821319,-14,-5,-35,-31,-17,-8,-58,-44
1482546760821319,-5,1,11,-4,-6,-11,-81,-22
1482546760835365,14,7,-4,1,-7,12,95,86
1482546760835365,9,14,26,-57,6,0,-21,13
1482546760836836,0,-8,-23,83,-4,-5,4,27
1482546760836836,-13,0,0,-19,7,6,-35,-17
1482546760849024,-6,-22,-12,-22,-14,-7,-21,-15
1482546760849024,-19,1,81,41,-1,-2,25,11
1482546760858007,26,34,-25,-15,6,2,-9,16
1482546760858007,-9,-17,-85,3,0,-1,33,15
1482546760872065,0,-9,35,7,-10,-11,-39,-25
1482546760872065,8,9,7,-2,23,8,10,-4
1482546760879016,6,0,-23,-10,8,7,-1,6
1482546760879016,16,-2,56,26,-10,-3,26,11
1482546760895082,-57,-9,-3,-43,-21,-15,-63,-60
1482546760895082,-19,-5,-4,15,16,11,15,16
1482546760896032,-2,-7,-9,19,28,2,-65,-46
1482546760896032,8,-2,-15,-52,-22,13,121,82
1482546760909066,10,10,15,36,-4,-9,-3,-5
1482546760909066,0,0,-5,9,-12,-13,-7,2
1482546760917101,-2,-2,-28,-35,-4,1,4,-2
1482546760917101,-5,4,21,-9,4,-1,-29,-18
1482546760932630,12,-5,16,20,14,3,8,6
1482546760932630,4,-2,-7,21,4,-2,-6,-4
1482546760934134,-3,-6,-4,-28,-7,3,28,13
1482546760934134,3,2,11,3,3,-1,-10,-10
1482546760955206,-2,0,-5,-3,-10,0,-1,-1
1482546760955206,2,-5,-14,-4,-3,-9,-18,-18
1482546760956203,-8,-7,4,-15,-1,-3,-19,-4
1482546760956203,-6,-4,38,11,-3,3,20,-4
1482546760977326,5,-2,-16,-7,-1,-1,2,13
1482546760977326,15,3,1,8,-2,0,-18,7
1482546760979272,-24,-9,-5,-15,-5,-1,23,-3
1482546760979272,-2,8,-5,12,3,2,-10,0
1482546760991336,7,-3,-10,-9,-6,-5,-6,8
1482546760991336,-2,-14,-13,-2,3,2,-5,-2
1482546760998343,2,7,39,7,-9,-4,11,16
1482546760998343,1,5,25,31,10,1,10,-18
1482546761015301,-4,5,-8,-9,-5,-7,-56,-30
1482546761015301,1,-4,-11,-17,0,-1,48,14
1482546761016327,2,0,-13,12,-2,8,17,6
1482546761016327,0,1,-10,-8,16,0,-7,-2
1482546761037875,3,6,31,20,-13,6,-4,-3
1482546761037875,8,-5,-24,-8,-19,-9,-16,-14
1482546761038376,5,-10,6,-43,20,6,9,10
1482546761038376,-17,-1,-17,1,-7,-11,-7,-4
1482546761051604,12,7,-28,23,7,1,10,6
1482546761051604,-5,-3,38,-18,-10,-3,-3,-2
1482546761058610,-1,0,3,28,13,2,-2,-11
1482546761058610,6,1,-3,-8,-11,0,-31,-5
1482546761082665,1,-1,5,-13,14,6,56,30
1482546761082665,-3,7,-9,3,-5,2,-44,-21
1482546761083639,2,-15,0,-5,-12,-5,57,30
1482546761083639,4,-1,-53,-39,1,2,16,3
1482546761097678,-7,-5,25,-3,-7,-5,-6,-10
1482546761097678,-8,-9,-16,27,4,-4,-29,-14
1482546761098652,-5,4,2,-15,4,5,-5,-4
1482546761098652,5,25,65,3,15,3,-22,-16
1482546761112689,-9,-24,-54,-15,-15,-2,28,10
1482546761112689,-3,-14,-4,-39,-2,-1,27,5
1482546761113632,3,5,6,-8,-6,-8,-49,-18
1482546761113632,-6,-3,-7,9,-13,-8,-31,-40
1482546761135268,5,20,12,-7,12,6,31,26
1482546761135268,4,7,64,62,3,0,0,3
1482546761136739,1,-2,42,-14,4,7,10,-9
1482546761136739,2,-9,-68,-18,4,-1,-24,-8
1482546761157894,-5,0,26,-6,-5,-4,-8,2
1482546761157894,-5,-5,-18,-2,-9,-1,27,14
1482546761158891,0,8,34,14,-5,-9,-21,-11
1482546761158891,1,-10,-11,7,7,7,11,14
1482546761171930,6,10,23,-13,2,3,-34,-29
1482546761171930,-2,-13,-64,-10,-7,-5,25,16
1482546761178909,-16,-17,-21,11,-13,-7,-10,-9
1482546761178909,-3,4,0,-11,-10,-4,3,5
1482546761194946,-5,-6,-16,-1,-6,-4,-11,-12
1482546761194946,7,21,26,-14,9,6,-6,-10
1482546761196891,13,0,-57,3,1,3,17,14
1482546761196891,-10,-8,2,-11,-8,-8,-3,-4
1482546761216965,2,2,10,-15,-2,-2,-17,-12
1482546761216965,5,-1,4,27,-5,-2,-8,-4
1482546761218906,3,8,23,51,13,3,2,6
1482546761218906,5,10,54,13,-1,2,5,4
1482546761231999,0,-3,-94,16,3,0,-19,-12
1482546761231999,-5,-17,-25,-86,-8,-4,-8,-35
1482546761238983,-15,4,-37,-30,-5,-2,27,27
1482546761238983,13,-4,10,14,-3,-2,-2,7
1482546761255391,-3,1,25,10,4,1,14,-2
1482546761255391,7,9,13,32,7,3,-34,6
1482546761256379,0,1,8,-17,-6,-4,23,1
1482546761256379,-5,-8,-34,-3,1,-1,17,6
1482546761277490,-5,-3,52,3,-1,1,5,-7
1482546761277490,-4,-1,-47,-20,-11,-1,4,9
1482546761279465,4,2,27,-1,3,-7,-15,0
1482546761279465,-5,-7,26,5,7,3,5,1
1482546761291501,-4,-19,-35,-3,-6,-9,-52,-42
1482546761291501,-5,9,10,2,7,4,25,17
1482546761298509,7,12,24,19,-17,-2,7,8
1482546761298509,-1,-3,-10,-13,-2,4,64,7
1482546761314637,-4,15,-50,8,5,0,-8,14
1482546761314637,-5,25,101,16,3,0,-13,-1
1482546761316581,-13,-65,-83,-27,-9,-6,-51,-27
1482546761316581,10,22,80,-17,4,2,15,19
1482546761337784,26,28,-3,-8,-4,2,13,19
1482546761337784,-33,-10,67,49,7,1,30,29
1482546761339292,7,2,10,22,4,2,-1,27
1482546761339292,-21,3,4,4,-7,-7,-41,-39
1482546761351529,8,-21,-17,-24,-5,-6,-27,-9
1482546761351529,26,22,-23,8,13,10,72,33
1482546761360539,-19,-1,4,-13,-4,4,6,-12
1482546761360539,9,-17,-23,7,-1,-3,-73,-25
1482546761375601,-5,2,19,-12,2,7,60,30
1482546761375601,6,-5,-13,-4,-2,-4,-22,-4
1482546761376545,-4,7,-48,-9,-8,-5,-7,-16
1482546761376545,9,42,28,27,13,1,1,9
1482546761397617,-21,-50,40,-23,-25,-5,27,-8
1482546761397617,-3,-3,27,-2,24,0,-18,-12
1482546761398560,12,7,37,19,-3,-6,-18,-6
1482546761398560,3,12,40,-19,-18,-6,17,2
1482546761410623,1,9,-14,21,20,4,-10,6
1482546761410623,-9,-28,-76,-20,-10,-2,-2,-10
1482546761419636,2,20,33,-7,1,1,-13,-25
1482546761419636,2,-13,-58,26,9,10,12,27
1482546761435224,-4,5,72,10,-12,-7,-8,-8
1482546761435224,7,-4,-28,-8,-4,-3,-26,-24
1482546761436721,5,15,19,20,6,-1,-46,-24
1482546761436721,17,-29,-65,-26,-8,-7,30,6
1482546761457319,-37,-22,-18,-8,1,-2,9,5
1482546761457319,13,8,-11,2,0,-10,-88,-55
1482546761459318,-16,-4,10,-2,1,6,86,76
1482546761459318,6,-2,17,-3,-8,-1,30,22
1482546761471433,10,6,3,0,12,6,8,6
1482546761471433,-4,-4,18,6,-5,-5,-23,-12
1482546761480389,11,3,-48,-2,0,-1,3,-7
1482546761480389,-13,-4,15,13,-1,1,-32,-17
1482546761495419,-4,-1,-32,-52,-15,-7,-14,-6
1482546761495419,-5,5,19,10,-15,-4,14,6
1482546761496390,10,-2,28,0,13,5,27,21
1482546761496390,-8,-1,-15,6,-1,-4,14,-1
1482546761517461,2,3,7,18,-2,-5,-83,-32
1482546761517461,5,15,18,-7,0,6,37,15
1482546761519407,-20,-29,-17,-18,-11,-9,2,-13
1482546761519407,20,-6,-34,-4,-5,0,19,10
1482546761539497,-9,4,-10,-4,0,-2,-14,-19
1482546761539497,-8,1,74,36,6,7,3,5
1482546761541587,-3,-37,-70,-78,-16,-10,-23,-26
1482546761541587,-4,-2,33,2,2,0,-19,1
1482546761554664,12,16,27,3,-1,2,29,8
1482546761554664,-4,-6,-22,-1,0,-1,4,14
1482546761556690,5,17,8,17,6,-1,-26,-17
1482546761556690,-1,-8,41,-2,7,5,-11,-4
1482546761577829,0,-1,-31,-4,-6,-3,14,7
1482546761577829,-6,-7,-36,-5,-9,-6,-34,-18
1482546761578798,11,35,73,-2,-8,1,6,10
1482546761578798,-12,-27,-20,-5,2,-7,-11,-8
1482546761590862,3,31,13,32,14,6,9,5
1482546761590862,-7,-20,-12,-45,4,4,-11,-7
1482546761599840,5,6,31,9,11,0,-9,-17
1482546761599840,-6,3,14,2,-6,4,46,38
1482546761614883,13,-7,-5,22,3,-1,22,10
1482546761614883,-14,3,-24,-15,0,0,-14,-2
1482546761616831,1,0,-20,-10,0,3,15,3
1482546761616831,-14,0,-18,63,-4,-3,-34,-38
1482546761637903,1,-16,-60,-54,5,0,-7,19
1482546761637903,-1,-33,26,18,-6,-5,44,16
1482546761639419,-4,2,7,36,4,6,-8,5
1482546761639419,-5,-2,-22,-25,-7,-7,-13,-4
1482546761650605,8,16,23,0,-1,0,5,-11
1482546761650605,-13,-3,10,24,2,-1,1,-2
1482546761659643,-4,-1,-7,-17,-2,-1,-5,1
1482546761659643,0,-5,15,-5,-4,0,-13,-10
1482546761674661,-2,0,35,19,3,0,18,10
1482546761674661,10,13,-20,-20,2,-1,-10,-7
1482546761676605,7,13,-2,16,1,0,7,4
1482546761676605,-1,22,11,-5,-1,0,-7,-3
1482546761697678,-6,-21,66,15,-12,-8,-15,-10
1482546761697678,2,-24,-83,-13,2,1,6,1
1482546761698621,-8,-2,27,23,-7,-1,3,1
1482546761698621,-8,-6,-43,-69,5,-1,0,4
1482546761710686,-2,2,-37,23,18,8,-1,0
1482546761710686,11,13,81,7,-9,-1,11,5
1482546761719636,3,11,9,24,-6,-5,-9,-6
1482546761719636,-3,-19,57,-4,-3,-5,-20,-7
1482546761735186,-3,2,-22,-3,-1,1,4,5
1482546761735186,-9,-61,-117,-42,0,-2,0,-2
1482546761736676,4,15,15,-3,7,-2,-3,-2
1482546761736676,-2,10,2,22,-5,-2,-6,-2
1482546761757798,-5,1,21,-22,-1,-2,-5,-4
1482546761757798,6,11,14,21,1,-3,-37,-36
1482546761758768,-2,-14,-19,-19,-4,1,35,28
1482546761758768,-11,-5,-22,4,2,-1,27,19
1482546761770832,6,-5,-3,1,-8,-4,-9,-12
1482546761770832,-13,20,2,2,3,4,-48,-10
1482546761779812,21,-14,3,-9,-9,-6,30,6
1482546761779812,4,10,15,-1,6,2,18,-3
1482546761794823,-9,-14,-21,6,-12,-3,-8,6
1482546761794823,0,8,0,-1,-13,-8,8,7
1482546761796794,-4,-27,-51,24,32,13,-24,-8
1482546761796794,9,5,7,-14,14,7,3,7
1482546761817840,4,-1,27,-13,-2,0,0,-13
1482546761817840,9,25,53,21,-7,-1,16,6
1482546761818813,-24,-11,-44,-8,-7,-6,-14,-5
1482546761818813,17,-2,20,33,-8,-3,-4,-12
1482546761831498,-5,1,10,-29,1,-1,-9,-2
1482546761831498,6,18,17,-9,2,-1,18,13
1482546761846447,-7,-15,16,4,-11,-6,-5,0
1482546761846447,2,9,18,15,-1,-3,-4,4
1482546761854467,0,-15,-47,0,0,0,-1,-4
1482546761854467,-8,-18,-17,-51,-5,-3,0,6
1482546761856467,-3,-2,21,-4,-3,-5,-54,-26
1482546761856467,-6,7,-57,-47,7,10,38,14
1482546761877484,12,17,-3,-10,-13,0,13,18
1482546761877484,-24,-8,59,90,-2,-5,10,-11
1482546761879475,3,-26,4,-16,-2,1,-13,-6
1482546761879475,8,17,4,5,-4,-5,-13,-13
1482546761891508,-26,3,-12,-4,5,-2,-31,-24
1482546761891508,31,20,11,-19,-4,3,25,24
1482546761900513,-40,-16,3,4,18,2,28,21
1482546761900513,-3,-12,-26,24,-5,-6,-13,-4
1482546761914492,2,-13,-34,-20,-11,-2,22,6
1482546761914492,7,20,48,69,27,8,-11,-4
1482546761916495,15,19,-36,-19,-29,-7,-6,-14
1482546761916495,-7,-10,10,-1,2,-6,-18,-7
1482546761937595,-14,-10,-53,-52,-11,-8,-19,-12
1482546761937595,1,-14,7,-21,-1,0,0,2
1482546761939074,9,34,14,40,-5,-1,5,1
1482546761939074,-15,-28,-38,-19,-16,-5,-19,-14
1482546761960314,23,10,86,23,13,6,-3,-3
1482546761960314,-30,-17,-66,-34,-14,-3,50,13
1482546761961311,-9,-7,17,-14,24,10,-3,-5
1482546761961311,-10,9,-19,31,-24,-21,-31,-12
1482546761974350,11,7,53,44,11,9,56,33
1482546761974350,9,-1,-18,-56,-15,-7,-55,-33
1482546761981355,-8,-38,7,6,2,-2,4,11
1482546761981355,-7,-6,11,-17,7,6,-12,-4
1482546761997367,3,-3,-12,-23,-17,-6,-15,-12
1482546761997367,-12,16,7,44,21,7,1,7
1482546761999339,19,3,-14,-61,-14,-6,-6,10
1482546761999339,-3,17,60,30,15,5,5,2
1482546762020356,-10,-5,-48,10,-14,-6,21,14
1482546762020356,11,-8,-11,6,11,8,15,-17
1482546762021330,-9,14,37,7,-3,1,-25,-12
1482546762021330,-11,-31,-61,-13,-2,-10,-14,0
1482546762034426,9,13,50,113,16,-2,-41,-22
1482546762034426,-28,-21,-43,-75,-16,-8,29,21
1482546762041033,2,8,17,35,-3,-2,-4,-13
1482546762041033,6,6,19,-17,2,2,-61,-49
1482546762057041,-9,-12,-12,-4,-18,-4,82,41
1482546762057041,16,14,9,47,8,4,-65,9
1482546762059029,4,9,-15,-26,-4,-2,-42,-14
1482546762059029,4,6,33,-29,-6,7,-11,-2
1482546762080059,2,6,11,-26,19,-5,-40,-5
1482546762080059,45,22,-18,26,-16,8,42,-20
1482546762081055,-18,13,75,-38,46,-12,-45,58
1482546762081055,-63,-39,-84,2,-22,-9,-30,-44
1482546762094067,-8,-4,30,0,-26,-11,-9,3
1482546762094067,-15,1,-14,-17,-47,-11,30,-25
1482546762101071,46,6,-11,25,48,24,36,32
1482546762101071,9,15,69,11,1,-9,23,25
1482546762117084,-2,-2,-67,-20,1,4,-14,-11
1482546762117084,-1,-2,41,30,4,-2,22,19
1482546762119082,1,4,45,39,-14,5,-6,-28
1482546762119082,4,-26,-8,-48,9,10,42,14
1482546762140120,1,-2,-74,7,-16,-12,-6,20
1482546762140120,-3,-5,-48,-46,-8,-5,-34,-22
1482546762141374,-8,-6,-16,-57,-9,-3,-1,-20
1482546762141374,0,14,24,50,-10,-3,27,27
1482546762154388,12,3,46,3,16,16,-15,-12
1482546762154388,-31,-17,-3,-28,2,-6,-10,-24
1482546762161393,2,13,-40,8,1,0,2,6
1482546762161393,19,8,8,19,27,19,52,32
1482546762177403,-14,-9,25,-19,5,-10,-84,-43
1482546762177403,0,2,-71,-64,-12,-15,-57,24
1482546762179402,0,-20,-11,11,-39,-7,100,28
1482546762179402,31,27,1,31,-7,3,-59,-19
1482546762200420,-10,-2,51,5,11,10,90,32
1482546762200420,7,6,45,20,19,9,19,-9
1482546762202418,-10,0,-13,2,-9,-5,-51,-48
1482546762202418,9,-2,-22,-2,11,3,-69,20
1482546762213431,10,-1,-9,-8,6,6,9,41
1482546762213431,-36,-4,0,7,9,1,5,12
1482546762222432,8,19,21,21,-1,4,9,-5
1482546762222432,-31,-9,13,-21,-10,-14,-105,-75
1482546762245048,27,9,10,2,4,-1,97,58
1482546762245048,13,3,-4,-12,5,3,14,53
1482546762246041,-4,1,-7,12,3,-3,-82,-88
1482546762246041,3,-4,24,-23,-7,9,99,80
1482546762260159,29,-10,37,28,-10,-14,-9,45
1482546762260159,-41,2,-23,20,22,3,-97,-23
1482546762261133,-12,-16,72,13,-25,-11,73,-20
1482546762261133,9,17,-34,-13,8,5,-72,54
1482546762273169,17,6,-5,17,6,20,75,46
1482546762273169,56,-2,-33,45,10,6,-31,45
1482546762282151,-26,10,0,-77,-9,-5,40,-28
1482546762282151,-17,2,12,1,2,3,-61,-34
1482546762297189,19,-31,-11,-3,-9,-15,72,66
1482546762297189,5,-5,-10,4,-1,-11,-99,-74
1482546762299132,6,20,-20,13,10,10,-68,0
1482546762299132,7,-4,14,-17,-7,-7,67,-11
1482546762320203,-23,-3,-42,-9,-11,-10,-70,-61
1482546762320203,-8,-18,5,-19,-33,-7,34,-21
1482546762321148,8,10,-16,13,58,25,-10,9
1482546762321148,12,-1,-16,7,-18,-21,67,21
1482546762333717,-29,10,-14,-6,3,13,-80,-74
1482546762333717,11,17,70,33,56,27,44,17
1482546762342263,3,-36,-51,-9,-32,-8,27,47
1482546762342263,14,12,-2,4,2,-5,10,-5
1482546762357278,-29,-14,-30,-22,-26,-19,-25,-31
1482546762357278,25,26,21,-13,-21,-16,5,-10
1482546762359275,-5,-22,1,1,-1,2,14,30
1482546762359275,-18,-1,-9,0,-2,-2,15,-14
1482546762380305,6,1,18,-5,-1,0,-37,-36
1482546762380305,-2,2,20,7,1,3,24,16
1482546762381281,-12,4,-7,12,5,-6,-15,-1
1482546762381281,20,-8,-7,0,-10,5,18,2
1482546762393341,-23,5,11,-20,10,6,-19,-12
1482546762393341,7,-5,7,15,15,4,18,11
1482546762402322,-7,-10,-11,-10,-23,-16,-16,12
1482546762402322,7,9,2,17,0,-3,-83,-38
1482546762417358,24,-4,8,11,18,17,8,9
1482546762417358,-25,-9,-3,-17,-9,-8,14,-12
1482546762419310,-3,-14,-8,6,-15,-10,-33,-15
1482546762419310,-13,-2,-1,1,10,10,57,8
1482546762440395,7,8,1,-5,3,-2,-19,-12
1482546762440395,-12,-5,8,2,-15,-6,1,2
1482546762441449,6,10,-5,-13,-1,-1,-18,8
1482546762441449,49,-3,1,10,13,8,21,9
1482546762453476,-40,-4,2,-3,0,-2,-16,-18
1482546762453476,1,-7,2,-7,-4,-1,32,10
1482546762462478,4,21,0,-7,-3,-4,-1,-22
1482546762462478,-6,-19,-6,-9,3,10,75,81
1482546762477491,2,11,3,15,0,-2,-1,-14
1482546762477491,-4,-6,2,-6,-1,-1,-20,-8
1482546762479476,8,-4,-12,-2,-3,0,7,1
1482546762479476,-40,-1,-2,-3,-7,-8,-12,-24
1482546762499518,19,12,7,3,2,-2,-29,-17
1482546762499518,14,1,-16,-5,3,4,19,12
1482546762501517,-25,5,6,-1,-3,0,23,13
1482546762501517,0,-3,53,11,0,-5,-19,-13
1482546762522563,-22,-21,-87,-37,-5,-3,3,4
1482546762522563,-4,2,3,-6,-5,-5,17,-6
1482546762524508,11,-5,13,5,-1,-1,11,3
1482546762524508,-17,-2,-59,-24,-7,-8,-6,-17
1482546762537595,8,6,36,27,5,8,-1,1
1482546762537595,12,-2,3,-19,8,6,-10,-1
1482546762539086,-3,12,18,5,-4,-2,-3,-6
1482546762539086,-2,-20,-43,-6,1,-1,25,14
1482546762559889,0,4,16,6,-8,-4,-24,-12
1482546762559889,-6,3,3,-5,-4,-1,4,4
1482546762561838,-8,3,9,13,-1,-3,1,9
1482546762561838,4,7,28,-2,2,-1,-24,-19
1482546762573904,15,5,-8,3,0,-1,-3,-8
1482546762573904,-10,-11,-3,14,-2,-1,-10,-3
1482546762582879,6,-5,-4,-26,1,1,17,10
1482546762582879,13,7,22,1,-4,-3,1,-8
1482546762597891,-6,2,-13,-4,4,-1,-2,0
1482546762597891,-14,-24,-11,13,-2,-3,-33,-12
1482546762598865,4,-8,11,-4,1,2,12,5
1482546762598865,-17,2,-14,4,0,2,8,-2
1482546762620047,-2,-8,48,19,4,0,-9,3
1482546762620047,9,6,-8,-50,-9,-4,13,6
1482546762621021,1,-14,-8,25,-8,-5,32,-2
1482546762621021,-2,-4,31,8,0,-2,-29,-2
1482546762634080,-12,-1,14,26,0,-3,-36,-8
1482546762634080,17,4,-14,9,6,2,9,-7
1482546762642701,-34,-4,-45,-31,-5,4,52,37
1482546762642701,-1,3,6,0,2,-1,-8,-4
1482546762657694,8,-5,-9,-10,-5,0,-2,-2
1482546762657694,-16,-2,8,6,-1,-3,-2,6
1482546762658703,26,-3,-7,-17,0,4,-46,-22
1482546762658703,-8,-5,-15,17,-1,2,9,-1
1482546762679730,-5,22,-8,-19,-3,-3,-6,-3
1482546762679730,20,7,17,7,-2,0,-4,-1
1482546762681726,6,-5,0,15,2,-8,-19,-8
1482546762681726,-4,-48,-14,-5,-6,-4,-4,-3
1482546762693816,8,0,3,-8,0,2,12,1
1482546762693816,-9,5,-6,-16,-1,-2,2,3
1482546762702789,18,13,-6,9,-3,-1,-6,6
1482546762702789,3,-1,11,2,2,-1,-60,-28
1482546762717800,-3,-4,17,3,4,4,91,33
1482546762717800,-12,-11,-45,-6,-3,-3,-45,-8
1482546762718800,-2,2,54,26,4,4,24,8
1482546762718800,6,9,-54,-38,-11,-4,-50,-23
1482546762740052,6,-3,40,14,2,11,-8,-14
1482546762740052,10,6,61,83,1,-22,35,19
1482546762741903,-5,7,-47,-78,4,5,-18,8
1482546762741903,-3,2,44,18,-12,-8,75,-7
1482546762753938,11,2,6,-14,-6,-7,-48,-14
1482546762753938,-54,6,-28,-19,4,14,-19,8
1482546762762942,17,2,39,47,4,-2,28,24
1482546762762942,0,3,-2,-3,0,-1,19,18
1482546762776984,3,6,-32,-36,1,-7,-16,-15
1482546762776984,35,5,19,20,2,3,9,7
1482546762783960,-20,2,-5,-22,-7,-1,-18,-12
1482546762783960,-9,-3,5,24,13,13,6,8
1482546762799996,-15,-11,-46,-4,-3,-1,12,-2
1482546762799996,5,-10,26,-14,-3,1,-10,-10
1482546762800969,3,19,12,34,5,-2,-31,-10
1482546762800969,16,-25,-8,5,-6,-1,30,6
1482546762813981,-31,-5,60,42,2,-2,14,3
1482546762813981,4,-9,-18,-30,7,13,-43,2
1482546762822985,-11,-27,-43,-67,-12,9,63,-14
1482546762822985,-11,-32,30,-27,-8,-1,-76,64
1482546762837040,8,20,49,35,1,-45,-12,-7
1482546762837040,-19,21,-29,62,-3,-2,23,-7
1482546762843741,26,2,4,-40,5,0,-29,-15
1482546762843741,-11,22,-12,16,3,15,16,-6
1482546762859777,-1,-12,-79,-66,-8,9,19,3
1482546762859777,8,10,38,-1,-5,-6,-14,-9
1482546762861751,23,29,7,40,-3,-5,-5,4
1482546762861751,-25,9,28,32,17,1,23,-17
1482546762882780,8,-12,-23,-12,-5,2,-43,-5
1482546762882780,-17,-12,10,-15,3,4,34,-15
1482546762883739,4,-20,-22,-24,-31,4,-8,0
1482546762883739,27,17,15,-29,-3,-15,-1,-19
1482546762896810,-21,5,19,46,18,13,-11,-7
1482546762896810,28,-8,-38,-28,-3,-1,1,31
1482546762903911,-29,-32,18,61,7,-6,33,-3
1482546762903911,6,21,-31,-103,-6,-2,4,-14
1482546762919941,-10,-14,20,-11,0,3,-18,3
1482546762919941,6,-9,-66,14,-3,7,-13,-22
1482546762921894,8,4,40,40,5,-15,61,53
1482546762921894,16,4,-46,-29,-11,-11,-30,-9
1482546762942036,-20,9,8,6,2,7,-10,-20
1482546762942036,-11,14,20,-8,4,4,24,11
1482546762944035,2,3,10,20,9,6,-98,-43
1482546762944035,12,11,-8,24,3,6,56,54
1482546762957049,9,0,-24,-27,-9,-1,56,17
1482546762957049,-3,3,28,6,-3,-8,-14,-23
1482546762963036,-14,-16,-33,12,9,6,-29,-15
1482546762963036,-6,6,32,-36,-4,-2,-3,-15
1482546762980106,14,-9,-7,16,-9,-5,-20,-1
1482546762980106,-12,-3,22,-31,-8,-3,2,0
1482546762981076,0,-5,-10,19,0,-9,-15,5
1482546762981076,0,6,-10,29,7,2,3,-14
1482546763002091,2,0,12,-8,-1,5,5,-3
1482546763002091,7,-6,30,-5,-6,-6,-8,-2
1482546763004069,-5,5,-48,-28,-2,-2,2,-40
1482546763004069,-19,-3,13,20,-7,-8,14,-25
1482546763017133,2,-2,-8,-4,0,-1,-17,-12
1482546763017133,3,3,6,13,7,3,4,-14
1482546763023133,-10,-16,-15,-35,-6,-3,-18,19
1482546763023133,-8,-3,-4,9,0,-5,-27,-7
1482546763040163,0,8,-7,6,10,5,-45,18
1482546763040163,1,-10,-17,-11,-5,4,86,34
1482546763041668,1,6,9,8,3,-2,-32,-4
1482546763041668,21,1,-4,14,0,0,1,10
1482546763062702,-37,-1,-9,-22,-11,-6,-4,7
1482546763062702,-6,-6,3,10,-2,-5,-13,-5
1482546763063699,-3,-2,9,-1,10,-1,2,4
1482546763063699,8,0,4,5,-15,6,37,21
1482546763076694,16,12,-6,-2,4,1,5,-17
1482546763076694,-3,-5,-8,-30,-6,-5,-22,-4
1482546763083713,-11,-6,17,27,-5,-5,26,12
1482546763083713,1,7,-2,32,6,4,-33,-16
1482546763099764,2,-2,6,-14,-7,-5,11,-9
1482546763099764,-1,4,-21,-29,-2,-2,-8,1
1482546763101738,9,12,-2,26,2,2,-18,5
1482546763101738,-1,-14,-42,-33,7,3,14,12
1482546763122753,-2,-12,37,6,-13,-3,2,-2
1482546763122753,-12,2,28,34,-3,-14,-19,14
1482546763123753,2,3,-13,-5,-7,2,-4,-8
1482546763123753,-4,7,9,14,2,2,42,-7
1482546763136813,7,-8,-30,-19,11,2,6,-5
1482546763136813,-2,-2,0,-3,-1,-1,-19,2
1482546763143406,-3,0,11,10,-8,-5,11,8
1482546763143406,-2,0,-2,-7,2,-1,-21,1
1482546763159417,-1,-6,-11,0,0,-4,-2,1
1482546763159417,9,2,-8,15,5,0,7,-8
1482546763161413,0,-4,-10,-12,-7,-4,-1,-5
1482546763161413,1,2,5,-12,1,0,-21,-19
1482546763182433,3,-26,2,-8,-2,-2,-13,-10
1482546763182433,2,1,-2,7,1,1,4,9
1482546763184419,-2,3,8,-40,2,2,14,2
1482546763184419,-3,-10,-32,36,-8,-4,8,-2
1482546763196459,2,5,18,23,12,1,-15,3
1482546763196459,-4,-24,-51,-55,-8,0,-8,5
1482546763205460,-7,-10,-10,-13,-5,-3,-1,-1
1482546763205460,-1,0,-1,11,8,4,5,13
1482546763219459,4,13,-14,-25,-33,-4,8,-4
1482546763219459,8,6,-12,12,36,2,-30,6
1482546763221456,-2,-5,1,3,-8,1,32,-1
1482546763221456,-3,4,22,-12,-6,-5,-33,-2
1482546763242593,-5,-11,-49,-4,0,3,19,11
1482546763242593,-3,9,17,3,-10,-6,-39,-71
1482546763243579,3,-1,-9,9,5,0,-13,-4
1482546763243579,-4,-2,22,3,-5,-4,2,-4
1482546763255641,-1,4,8,9,5,-4,4,7
1482546763255641,1,1,18,19,-7,-2,-14,-4
1482546763272629,-2,-4,-16,-7,4,3,9,11
1482546763272629,-5,-4,7,9,0,1,10,-19
1482546763279609,4,3,9,-13,0,-1,1,5
1482546763279609,-1,1,-4,4,-1,1,42,14
1482546763281610,2,8,18,10,-4,-2,2,-21
1482546763281610,3,4,-2,-21,1,-3,-8,1
1482546763302673,-3,-7,-27,-3,2,-2,-2,-3
1482546763302673,-4,-1,5,19,-2,1,4,-1
1482546763303652,-1,-5,-10,-58,-15,-1,-20,-4
1482546763303652,3,4,3,-12,0,-2,-29,20
1482546763315682,4,5,7,-7,16,-1,-28,15
1482546763315682,-1,-1,-6,-8,-13,3,111,-2
1482546763324661,-1,4,15,23,5,2,-37,11
1482546763324661,-9,-18,-54,-8,0,-13,-46,-23
1482546763340175,0,-3,-3,17,7,9,20,28
1482546763340175,8,13,-4,-6,-4,3,-15,55
1482546763341664,-1,4,22,15,7,-3,-3,-13
1482546763341664,0,0,25,-16,-5,0,16,6
1482546763362248,5,14,-12,20,1,2,-26,-19
1482546763362248,9,-7,-7,-23,-3,-4,-8,-12
1482546763364219,-7,-4,-15,7,-13,-8,-30,-65
1482546763364219,-6,-1,8,-16,-22,3,-22,61
1482546763376256,-2,-3,-4,13,38,3,-8,34
1482546763376256,4,2,9,12,-2,9,34,-5
1482546763385237,13,14,9,33,14,-4,-69,-11
1482546763385237,2,-3,4,9,-10,-5,-11,-25
1482546763400277,-1,-1,12,-5,-27,0,27,-7
1482546763400277,-2,-4,-6,-52,5,-5,11,22
1482546763401222,3,2,-17,3,2,2,13,3
1482546763401222,8,11,6,-11,16,3,6,24
1482546763422287,-13,-5,19,-4,-10,-14,-70,-77
1482546763422287,-26,-12,11,70,-10,-5,-6,9
1482546763424261,1,6,-48,-105,-14,2,-6,5
1482546763424261,-17,-9,53,95,39,-1,73,15
1482546763436298,22,-6,-29,-58,-11,2,-23,-21
1482546763436298,-2,-6,-24,41,-6,-4,-47,-23
1482546763444937,5,8,-14,-43,25,5,7,35
1482546763444937,3,-5,33,-34,-34,-6,12,-7
1482546763459965,-5,6,5,50,4,-1,6,7
1482546763459965,5,4,-33,53,6,6,-33,0
1482546763461953,-3,-17,-18,-64,-13,-2,57,-5
1482546763461953,-5,7,-15,24,6,2,-15,-5
1482546763482005,-15,-5,22,-3,-14,-7,-54,-34
1482546763482005,4,8,44,16,0,3,56,33
1482546763483993,2,7,-59,30,5,-1,-31,5
1482546763483993,8,-6,-9,-49,-5,2,-16,4
1482546763496032,-9,0,21,9,6,1,-7,-9
1482546763496032,0,-14,-7,-5,1,-3,15,8
1482546763504981,-4,3,36,58,-2,-1,16,0
1482546763504981,-2,-1,-17,19,1,3,14,-33
1482546763520032,7,7,-4,-17,-3,1,38,52
1482546763520032,4,12,-1,-35,-1,-2,-48,-51
1482546763520995,-12,-20,17,14,-20,-6,-2,13
1482546763520995,-4,1,5,23,5,-7,-82,-3
1482546763542084,1,0,-15,-16,4,2,23,-6
1482546763542084,5,4,8,-21,3,0,-30,-17
1482546763544166,2,-13,18,26,-1,1,1,18
1482546763544166,1,13,-25,-28,-11,0,22,1
1482546763556180,-6,-6,0,41,-1,-4,2,2
1482546763556180,-3,-3,-2,-91,-1,-1,-26,-14
1482546763565189,-4,-4,14,12,-9,-8,-20,28
1482546763565189,4,2,12,29,11,9,73,29
1482546763595250,6,4,-39,-30,2,3,3,0
1482546763595250,-4,-13,68,38,-10,-14,52,4
1482546763596189,2,5,-26,-77,-25,6,12,-10
1482546763596189,-3,-8,-14,24,3,-1,-22,-16
1482546763602248,4,11,12,10,-3,1,33,12
1482546763602248,-5,-8,-14,-27,4,0,-46,-8
1482546763604195,-3,-1,12,22,3,-2,-15,-30
1482546763604195,1,6,0,17,-1,-7,-16,-26
1482546763616259,-1,-12,18,-5,-8,-3,-36,-5
1482546763616259,-11,-4,-27,2,-3,-2,-33,9
1482546763625211,1,2,20,21,8,0,4,-14
1482546763625211,1,0,-8,-29,-2,4,58,19
1482546763640312,3,8,31,34,10,1,-101,-31
1482546763640312,-1,-5,-37,-60,-13,-2,74,25
1482546763641810,-7,-7,35,44,-13,-5,5,4
1482546763641810,6,1,-10,3,15,-1,-48,-7
1482546763662759,-1,2,-4,-20,11,8,17,12
1482546763662759,1,3,11,88,16,6,-13,-6
1482546763663706,0,4,-11,-48,-4,1,-11,0
1482546763663706,1,-1,-2,-1,-10,-1,-2,6
1482546763675742,-2,-3,26,22,-5,-10,41,11
1482546763675742,-1,1,-6,-11,-7,-7,-28,-13
1482546763684752,-7,-6,2,11,1,-3,14,-1
1482546763684752,-1,1,-5,-18,8,0,-19,-15
1482546763699788,-5,-4,-17,27,-12,-1,27,2
1482546763699788,1,-2,-3,0,21,13,-8,7
1482546763701761,2,1,6,4,7,-2,-3,4
1482546763701761,-2,-5,-29,-94,-24,-2,3,4
1482546763722780,-3,-4,2,36,27,4,10,-1
1482546763722780,-1,1,2,-34,-8,-3,-9,0
1482546763723749,1,0,6,27,-1,-7,3,7
1482546763723749,-4,-2,15,39,-2,-3,-29,-2
1482546763736335,1,4,-43,-18,-11,-1,39,10
1482546763736335,0,1,25,-37,-9,-2,-13,-12
1482546763745417,-7,-11,26,49,5,-3,-2,4
1482546763745417,2,-1,-10,-56,-22,-4,-6,-2
1482546763759413,-4,-6,8,-13,-3,-8,-9,-12
1482546763759413,5,8,-18,43,20,7,8,4
1482546763766420,4,10,15,9,-1,5,3,1
1482546763766420,-1,-5,-13,38,-7,1,-3,-2
1482546763782548,-2,-7,-43,-49,7,-1,7,3
1482546763782548,-5,-4,14,-56,-24,-9,-11,-8
1482546763783494,5,10,0,27,18,4,9,5
1482546763783494,-7,-5,20,26,-7,-4,-4,-6
1482546763796502,-2,-2,-18,-42,-32,-8,9,7
1482546763796502,0,-6,-40,-9,-1,-4,-6,1
1482546763805515,-2,-1,-9,-9,6,-1,0,1
1482546763805515,5,6,-10,74,23,11,10,6
1482546763819572,3,7,25,6,2,-2,3,5
1482546763819572,2,3,9,-32,-18,-1,-5,-1
1482546763826527,-5,-3,-10,18,7,0,0,-3
1482546763826527,3,-2,-3,-19,-7,-6,-2,-2
1482546763842584,8,-3,-5,-7,-1,-2,-2,-2
1482546763842584,1,1,-4,15,-2,-1,1,2
1482546763843706,4,1,-25,-30,9,4,1,0
1482546763843706,-6,-8,34,-1,6,-4,-34,-14
1482546763864736,-5,-4,3,8,-9,3,64,16
1482546763864736,-1,1,-6,3,-1,-3,2,-2
1482546763866736,2,0,-10,-1,-1,4,9,-1
1482546763866736,2,3,11,8,2,-5,-9,1
1482546763879732,-1,-2,-62,-33,3,1,-16,-2
1482546763879732,-12,-15,61,74,-35,-15,-11,-12
1482546763885790,0,3,17,-40,17,12,4,6
1482546763885790,0,3,-27,-21,12,6,9,3
1482546763902776,-1,2,0,5,-9,-4,-12,-2
1482546763902776,3,7,-22,77,35,6,2,0
1482546763903749,5,3,24,-20,-4,-1,-9,-3
1482546763903749,-9,-19,-16,-37,-2,-1,8,-3
1482546763924816,0,0,4,39,5,-1,0,2
1482546763924816,-5,-3,-23,-30,-11,-3,-7,0
1482546763926793,-4,-6,-22,0,-15,-9,2,-1
1482546763926793,2,6,1,9,7,2,1,0
1482546763939506,-3,-5,6,15,-2,-2,-39,-8
1482546763939506,4,0,10,-7,9,7,22,-3
1482546763945624,3,5,-22,19,4,2,37,25
1482546763945624,-2,-1,18,-23,-3,3,46,15
1482546763962662,-11,-3,11,2,-13,-8,-15,-1
1482546763962662,3,1,-7,-15,4,1,-14,-1
1482546763963608,1,-4,-4,-1,1,-1,-9,-7
1482546763963608,-5,-2,0,8,-1,-2,2,6
1482546763984655,-2,-9,35,-12,-7,-3,-27,-7
1482546763984655,-4,5,11,-18,12,1,34,9
1482546763986628,-5,-9,-5,-7,9,1,-6,-4
1482546763986628,6,8,35,59,21,4,-7,-3
1482546763999669,1,1,-62,-5,18,9,-2,-1
1482546763999669,-6,-8,-18,-36,-8,-9,-21,-8
1482546764005695,-1,-3,19,-11,-15,-5,-13,5
1482546764005695,1,2,-19,10,-7,0,4,-8
1482546764022677,2,7,30,16,-1,1,52,12
1482546764022677,5,5,3,16,-13,2,-12,-9
1482546764023678,-1,0,-8,-19,7,-1,15,9
1482546764023678,-3,-1,-2,-8,-15,-6,-41,-12
1482546764044872,-5,-1,7,-15,-2,-4,46,24
1482546764044872,9,1,-13,9,7,-1,-1,2
1482546764046854,0,-7,12,7,-8,-1,-27,-20
1482546764046854,-8,2,-5,-12,0,0,-59,-14
1482546764058931,-4,-4,3,-20,-12,1,62,34
1482546764058931,-1,2,16,9,2,-4,-43,-20
1482546764067962,-11,-7,-12,-11,-3,-8,16,-46
1482546764067962,7,-2,10,-7,-2,4,-43,-4
1482546764081999,8,-1,44,12,-4,-3,-51,-17
1482546764081999,-25,-4,-30,-39,1,2,8,8
1482546764083974,-3,0,11,40,-16,-9,-20,-3
1482546764083974,2,0,-13,-7,8,-1,1,-10
1482546764105001,-1,3,45,13,-6,3,23,3
1482546764105001,9,4,-28,15,8,2,-17,-14
1482546764106966,2,4,11,-22,5,10,1,6
1482546764106966,-2,-9,-53,-18,-19,-12,19,6
1482546764119000,-11,-2,4,8,0,-3,-42,-8
1482546764119000,2,-3,10,-28,9,3,20,9
1482546764127545,1,-2,-18,-9,-4,-2,-6,8
1482546764127545,0,0,12,18,4,2,21,-5
1482546764142565,5,7,3,9,-9,-5,-20,-27
1482546764142565,-1,-5,-7,-5,4,0,0,6
1482546764143557,-5,-12,3,18,-4,-2,-31,-7
1482546764143557,-3,1,22,-16,6,4,43,-1
1482546764164587,5,-9,-11,6,-1,-1,-35,-13
1482546764164587,13,7,-9,-5,-5,3,46,15
1482546764166586,5,37,41,7,8,5,14,21
1482546764166586,-10,-59,-36,-9,-18,-12,-31,-12
1482546764178586,-2,-2,-9,-8,6,1,-11,-2
1482546764178586,5,3,13,13,2,-1,-1,6
1482546764187617,-1,18,30,-4,-9,-6,0,-1
1482546764187617,3,17,-5,-25,-4,3,1,9
1482546764202654,-7,-3,-13,2,7,4,11,0
1482546764202654,1,-8,0,20,-12,-5,-27,-5
1482546764203606,5,1,4,18,18,1,7,-1
1482546764203606,-4,9,23,-33,-21,-5,9,6
1482546764224668,6,-1,-23,16,19,4,2,-1
1482546764224668,-4,7,28,16,8,4,-10,-7
1482546764226642,-2,-14,-46,-31,-15,-7,-71,-19
1482546764226642,3,1,-13,2,7,9,82,46
1482546764238675,-1,2,-21,-7,-6,-2,5,0
1482546764238675,-4,6,22,16,-7,-6,-14,-6
1482546764247356,-3,-15,-31,-33,-5,-1,-1,-5
1482546764247356,-4,-3,8,18,9,-1,-19,-15
1482546764262394,0,-3,8,8,-13,-4,-8,-1
1482546764262394,-1,3,10,-12,-1,-1,1,5
1482546764264374,1,-6,-44,3,1,-1,32,14
1482546764264374,4,9,-2,24,4,-1,-10,-5
1482546764292416,-10,-11,-7,-30,-8,-1,-6,-6
1482546764292416,1,1,13,2,-16,-11,7,3
1482546764294361,1,-12,-2,6,-4,1,8,2
1482546764294361,3,12,16,9,29,3,-5,-1
1482546764298421,-1,-11,-54,-20,-9,-5,-9,-10
1482546764298421,-1,2,-31,6,-10,0,-8,-3
1482546764307401,-6,10,97,-12,0,-1,2,-2
1482546764307401,-1,-2,-19,-9,-9,-3,3,4
1482546764322555,8,10,-29,-12,5,1,-2,2
1482546764322555,-2,-20,-3,-5,3,-1,-15,-3
1482546764323506,9,22,19,14,-7,0,30,22
1482546764323506,1,-14,-4,-13,2,1,28,6
1482546764344648,-8,11,97,29,-7,-5,1,1
1482546764344648,-6,-3,-63,1,3,-2,-11,-8
1482546764346633,4,-19,-2,6,5,5,3,11
1482546764346633,-1,2,-13,18,0,0,-26,-12
1482546764358654,0,-11,-18,-5,8,2,23,-1
1482546764358654,-7,0,22,-15,-6,-3,10,-2
1482546764367643,2,-2,-28,4,-1,-2,-6,7
1482546764367643,12,5,-4,-3,-4,-4,-22,-8
1482546764382667,-5,11,11,6,0,2,-8,-2
1482546764382667,-3,-3,18,1,1,-2,-26,-15
1482546764383655,-1,-1,-10,13,13,0,-4,-11
1482546764383655,5,25,41,-10,-18,0,15,10
1482546764412738,-4,-27,-23,-6,1,-3,-23,-9
1482546764412738,5,32,90,23,4,5,13,8
1482546764413677,-4,-21,-66,-37,-11,-3,2,-2
1482546764413677,-5,16,17,14,33,1,-2,-1
1482546764418708,5,2,14,-45,-8,6,2,6
1482546764418708,-7,-23,-51,-7,-24,-8,-1,-2
1482546764427687,4,17,45,31,8,4,13,3
1482546764427687,-4,-2,9,-23,-10,-4,-23,-5
1482546764442710,-6,-5,-7,23,-1,-6,25,1
1482546764442710,3,-33,-17,25,10,5,16,22
1482546764443706,-5,3,-11,-62,-14,-8,-29,-21
1482546764443706,-11,-23,-1,16,-9,-4,17,-8
1482546764464833,6,18,5,1,11,5,-12,5
1482546764464833,6,9,29,2,1,-2,-27,-32
1482546764466806,-4,-5,-16,6,2,0,64,48
1482546764466806,-2,-7,-14,18,-4,-4,-5,-3
1482546764478845,2,8,13,3,-3,-2,-3,1
1482546764478845,-2,4,-6,-18,2,3,9,2
1482546764487823,-6,-14,-28,24,1,-4,-36,-25
1482546764487823,2,9,6,-23,-3,-1,-31,-4
1482546764502834,-4,-20,1,-28,-3,-3,33,4
1482546764502834,-3,-8,33,25,-8,-4,-45,-8
1482546764503805,3,40,-21,25,11,9,83,31
1482546764503805,-19,-64,-68,-15,-14,-2,-2,1
1482546764524875,-10,-17,-33,-32,-1,-6,-20,-10
1482546764524875,-1,3,-15,-5,12,-3,-6,4
1482546764526828,1,2,25,-1,-9,-3,-26,-13
1482546764526828,6,16,12,24,-5,-5,4,0
1482546764538931,4,6,17,-1,-5,2,-4,0
1482546764538931,-2,-3,-17,-15,1,1,13,0
1482546764547002,-4,-7,-2,7,-3,-4,-35,-29
1482546764547002,-2,14,9,-11,0,1,16,13
1482546764570118,2,-4,-8,16,4,-2,9,-2
1482546764570118,5,10,4,-38,0,3,9,1
1482546764571091,-2,-15,-5,12,-10,-9,-42,-22
1482546764571091,2,1,4,-7,1,3,0,-2
1482546764585129,-1,4,5,27,5,-3,-21,-4
1482546764585129,-2,6,-28,-16,-3,-1,14,4
1482546764586092,-2,-13,-24,-67,4,3,-14,-7
1482546764586092,-6,-11,23,32,-15,-11,-2,-8
1482546764598256,4,8,5,19,2,-1,-19,1
1482546764598256,3,2,1,13,3,3,19,1
1482546764607207,-7,-4,-3,-3,-3,-2,2,10
1482546764607207,3,6,-7,-12,-1,1,-11,-1
1482546764622273,2,8,10,-5,8,2,9,2
1482546764622273,4,-3,12,2,0,-2,-10,2
1482546764624246,7,-3,-19,15,-3,-2,-31,-13
1482546764624246,-18,6,10,21,2,5,48,24
1482546764644935,9,6,21,-12,-3,1,-9,-3
1482546764644935,-7,-14,-9,3,-10,-3,11,2
1482546764646917,0,10,-26,-13,14,1,-6,-2
1482546764646917,-1,-7,16,-28,-4,-2,-17,-7
1482546764659010,-3,11,8,46,-3,-4,-2,-4
1482546764659010,-1,-1,5,-36,-15,-7,-6,3
1482546764667991,-1,-12,-3,-12,12,-4,13,3
1482546764667991,3,7,-24,-11,26,17,2,0
1482546764682056,-1,-3,17,33,-6,0,14,-3
1482546764682056,-3,-6,-15,-3,6,0,-44,-10
1482546764684030,-3,5,37,-4,-19,-5,54,38
1482546764684030,8,1,-23,-7,0,-2,-51,-23
1482546764705072,0,-2,17,-9,-3,2,-8,24
1482546764705072,-4,1,-6,23,-4,-6,35,30
1482546764706051,-12,-7,17,-13,-8,-8,-19,2
1482546764706051,7,5,5,10,2,2,-51,-36
1482546764719032,-15,-13,-31,-27,0,-1,67,59
1482546764719032,6,6,-2,2,1,-2,-72,-48
1482546764727051,-1,6,2,34,2,5,12,0
1482546764727051,-6,-1,11,8,-8,-3,84,46
1482546764742069,-1,-2,-1,-10,-4,-3,-46,-18
1482546764742069,0,-2,-8,-12,4,3,5,-4
1482546764748196,-3,-2,-2,19,-1,-1,-2,-8
1482546764748196,7,2,-26,-20,7,1,-13,0
1482546764765283,2,7,32,-10,2,1,-12,-15
1482546764765283,-8,-1,-15,61,-10,-4,13,6
1482546764766281,1,-7,-7,-37,-15,-5,-11,-15
1482546764766281,0,0,4,-26,-17,0,-1,0
1482546764787322,2,2,-19,-19,28,4,-4,-11
1482546764787322,-2,3,15,28,23,10,23,6
1482546764789296,2,4,-3,35,-12,-3,-12,-3
1482546764789296,2,2,-1,-31,-1,-3,-4,0
1482546764801334,-5,-6,-18,-23,-22,-11,-2,-9
1482546764801334,2,0,6,-8,4,5,11,6
1482546764808338,1,-2,7,27,5,0,4,-2
1482546764808338,0,1,-4,7,-4,-8,-52,-14
1482546764825325,-3,-9,-18,-8,17,9,46,6
1482546764825325,-3,-4,30,-1,-5,-6,-35,-22
1482546764826295,-5,-9,-2,-36,-5,-3,28,29
1482546764826295,-2,1,-9,7,-4,-1,34,25
1482546764847034,0,0,-3,6,-3,-6,-47,-14
1482546764847034,0,2,-9,-15,0,-5,49,15
1482546764849032,-1,-2,4,8,-7,1,-7,-12
1482546764849032,3,9,6,14,9,3,-19,-14
1482546764862047,2,-4,-22,-9,-1,2,5,1
1482546764862047,2,15,47,-2,-3,2,-29,-11
1482546764869045,1,-23,-40,9,2,-1,-3,-7
1482546764869045,-10,-12,26,14,-2,-6,10,-11
1482546764885099,0,6,3,0,-7,2,-3,5
1482546764885099,4,3,-38,-29,5,-1,-17,7
1482546764886046,0,11,44,14,2,6,35,23
1482546764886046,18,-3,-32,-9,1,1,-9,-9
1482546764907115,-27,-1,25,13,-12,-8,-7,-6
1482546764907115,-3,-6,3,-8,-5,2,-14,-12
1482546764909092,-5,-4,4,3,15,3,17,5
1482546764909092,-3,-4,-9,-7,-11,-6,-4,-2
1482546764922124,11,9,-10,-11,0,3,-14,-9
1482546764922124,3,-3,-24,-9,8,2,22,15
1482546764924099,-4,-1,5,0,-3,-5,-33,-22
1482546764924099,-10,-5,30,34,9,0,-5,-3
1482546764945226,4,0,5,12,-8,-4,35,19
1482546764945226,5,0,-6,29,-7,-3,11,5
1482546764946208,4,4,-12,-23,2,2,-8,-13
1482546764946208,-15,-6,-17,-12,1,3,0,12
1482546764967315,10,-7,-7,-8,-7,-5,-16,-12
1482546764967315,-8,-8,-9,-24,-11,0,2,-5
1482546764969317,-2,8,1,17,9,-3,-8,-3
1482546764969317,7,17,27,23,5,2,11,5
1482546764981353,-13,-36,-48,16,11,2,-17,-19
1482546764981353,-3,3,12,-20,4,3,10,3
1482546764988359,4,-10,-45,-8,-20,-5,-20,-10
1482546764988359,-1,0,13,-5,-2,-1,3,0
1482546765005319,11,15,7,18,-2,1,-8,-7
1482546765005319,2,-2,26,13,3,4,-14,-8
1482546765006343,-5,-3,5,-1,2,0,-3,5
1482546765006343,2,-9,-1,-10,-6,1,12,5
1482546765027389,5,31,80,4,-6,-7,-8,1
1482546765027389,3,-18,-96,0,3,3,6,2
1482546765029396,-15,-12,-1,-8,2,-1,-12,-9
1482546765029396,12,-4,7,2,-5,-2,2,-3
1482546765041383,-8,-5,6,-43,-10,2,-16,-19
1482546765041383,0,6,34,16,19,-4,5,4
1482546765049561,9,12,5,-1,0,4,-3,0
1482546765049561,0,-3,-32,-6,9,-4,2,-2
1482546765064591,3,0,32,13,-1,-1,8,7
1482546765064591,-7,-6,-62,-44,-14,-3,3,-2
1482546765066537,-1,2,-4,-6,4,1,1,0
1482546765066537,-8,-5,5,4,-9,-7,-3,-4
1482546765087579,8,22,-3,10,2,1,-4,0
