timestamp,emg1,emg2,emg3,emg4,emg5,emg6,emg7,emg8
1482545586900379,4,-6,-1,6,6,3,-4,6
1482545586900379,1,2,-1,8,0,1,0,-1
1482545586900879,-1,9,1,-9,-7,-3,0,0
1482545586900879,-3,-10,4,2,6,1,-1,-5
1482545586902881,-1,2,-15,-1,1,1,2,-4
1482545586902881,-6,-7,4,7,-7,-7,-4,-2
1482545586902881,-2,2,9,2,4,2,0,1
1482545586902881,7,-14,-28,4,2,1,0,-1
1482545586911140,-1,12,8,-15,-8,-3,0,-4
1482545586911140,6,1,10,-9,-1,0,1,5
1482545586916142,-7,-11,-13,8,1,-1,-4,-10
1482545586916142,2,9,7,-4,-1,0,0,6
1482545586931153,-4,-1,6,2,-4,-3,-1,2
1482545586931153,-1,-9,-7,-12,4,1,-1,-4
1482545586941167,7,6,17,6,-3,0,-1,1
1482545586941167,-5,1,-20,-4,0,0,2,3
1482545586948173,-5,0,65,12,-2,-2,-2,-3
1482545586948173,1,-9,-16,0,1,-1,-2,-2
1482545586970183,0,4,-8,-30,2,2,3,5
1482545586970183,-3,-3,17,13,-3,-1,-1,-3
1482545587010716,5,11,27,-26,-12,-4,0,12
1482545587010716,-12,-7,-31,0,4,-2,-2,-7
1482545587011717,10,-9,13,0,2,4,1,5
1482545587011717,-10,6,-10,-37,-6,-2,-1,-8
1482545587013730,-4,-9,15,53,1,-1,-1,-2
1482545587013730,5,-3,-15,-63,2,0,0,-1
1482545587014731,-6,2,29,18,-14,-7,-3,8
1482545587014731,-3,-1,-14,-22,-4,-2,-2,-30
1482545587021735,1,-7,-7,-20,9,4,0,-2
1482545587021735,-1,-3,14,24,-5,-4,-4,1
1482545587028740,0,12,-31,-30,4,3,3,3
1482545587028740,2,-7,37,28,-4,-3,-1,10
1482545587035745,-3,-1,-10,3,-1,0,-1,-4
1482545587035745,-2,4,15,-3,-4,-3,-1,1
1482545587050760,0,-2,-20,-26,-1,-1,0,0
1482545587050760,2,-4,-12,11,4,0,-1,3
1482545587058766,1,8,-5,-8,-1,-2,-2,-2
1482545587058766,-4,-1,3,1,-15,-8,-3,-3
1482545587073759,1,-2,-2,6,15,12,-3,-4
1482545587073759,-2,6,7,2,4,-6,1,4
1482545587081765,-6,-1,-8,-9,-6,-1,0,0
1482545587081765,5,0,-7,-10,-1,2,0,1
1482545587097279,0,-2,1,-9,21,7,-1,-4
1482545587097279,0,-1,-2,60,-60,-18,-5,0
1482545587097779,-4,-11,-4,-54,28,8,-2,-6
1482545587097779,1,16,64,16,21,7,7,6
1482545587119320,-6,-5,-33,22,-5,-7,-1,-5
1482545587119320,1,2,-21,-7,10,7,2,8
1482545587120334,2,-1,26,-24,-18,-11,-5,-3
1482545587120334,0,-1,-18,13,-14,-4,-5,-4
1482545587133328,-1,-1,27,9,-4,-3,1,-4
1482545587133328,1,-4,1,-43,2,-1,-1,2
1482545587141334,0,3,4,32,-3,2,1,-1
1482545587141334,1,1,-10,-21,6,7,4,2
1482545587156345,-1,0,3,17,-4,-7,-4,0
1482545587156345,3,-4,2,-17,-17,-5,-3,0
1482545587157350,-4,-12,-35,26,18,-5,-1,-3
1482545587157350,-4,5,-41,20,57,22,9,8
1482545587179361,-1,-1,-1,-13,-5,-3,0,0
1482545587179361,-1,4,12,-7,9,7,4,-3
1482545587180362,1,4,-1,33,-21,-4,2,-5
1482545587180362,0,-10,8,-47,-34,-18,-9,-7
1482545587193874,-2,0,7,-13,0,-1,-1,-4
1482545587193874,-2,1,6,38,14,4,-2,1
1482545587201879,-1,-5,-39,-31,-1,4,-1,1
1482545587201879,-1,-2,-12,3,-10,-6,4,-7
1482545587216891,0,5,1,-11,-4,6,1,2
1482545587216891,3,-6,5,-12,4,-1,-5,10
1482545587217892,0,-2,-5,-14,2,-10,-1,-2
1482545587217892,-2,7,-11,32,-13,3,-5,-9
1482545587238919,1,9,18,-1,-8,1,2,1
1482545587238919,-4,-13,-11,-23,13,-1,0,-5
1482545587239907,3,14,47,10,-2,0,-9,-6
1482545587239907,3,0,-5,17,-9,-6,-2,5
1482545587253935,0,-8,-8,10,-9,-7,-2,-6
1482545587253935,-1,4,-1,0,3,1,0,1
1482545587261936,-2,1,-32,-17,8,8,5,9
1482545587261936,4,-2,13,1,-6,-3,-2,-3
1482545587276934,-2,-1,21,30,-3,-5,-2,-2
1482545587276934,3,-3,-19,-12,0,1,1,1
1482545587277934,-1,2,-8,7,-7,-3,-1,-1
1482545587277934,-12,-2,21,-8,9,1,-1,-2
1482545587299477,-1,0,-33,27,-11,-4,-2,0
1482545587299477,-9,-6,1,-5,7,-2,0,-2
1482545587300487,13,-8,-4,3,-11,-3,4,0
1482545587300487,6,17,-15,-33,-6,-2,-4,0
1482545587322012,3,-8,8,1,1,-1,1,1
1482545587322012,-2,0,2,11,9,6,4,1
1482545587323000,-4,6,-4,-10,0,3,0,0
1482545587323000,-1,-5,12,23,-3,-2,-3,-1
1482545587345033,14,-3,-10,-3,0,-6,-4,-3
1482545587345033,-31,4,-13,-17,-4,1,-1,-3
1482545587346033,4,-1,6,1,4,0,-2,4
1482545587346033,2,12,15,6,-1,1,1,1
1482545587359025,-4,-12,-11,-18,2,-3,-2,-3
1482545587359025,8,5,-21,-31,-17,-2,-1,-3
1482545587360025,-6,-2,12,10,2,-3,-2,-1
1482545587360025,4,-11,-7,-6,-9,-4,-2,0
1482545587382041,-1,11,1,-15,8,2,0,2
1482545587382041,14,3,9,9,2,3,3,2
1482545587383042,-11,1,0,0,-11,-3,-1,-1
1482545587383042,2,-3,13,32,3,-3,-1,-2
1482545587397053,-19,2,-15,-19,-7,-4,1,1
1482545587397053,38,10,-10,-2,3,-2,-5,-4
1482545587398062,-41,10,31,8,1,2,0,-2
1482545587398062,7,-17,-16,-9,3,2,3,3
1482545587419071,19,-13,7,-23,-13,-4,-5,-4
1482545587419071,-81,2,19,45,3,-7,-4,-9
1482545587420071,41,1,-9,-8,0,1,2,4
1482545587420071,34,11,-7,-9,0,-1,0,5
1482545587442087,-43,3,4,-8,2,1,-3,2
1482545587442087,42,-2,-9,-5,-1,1,-1,0
1482545587443088,18,1,12,11,3,2,2,2
1482545587443088,-10,-16,-33,-2,-1,1,2,0
1482545587457097,-38,0,23,-5,-7,-4,-3,-8
1482545587457097,38,-13,-34,-4,-5,-3,-2,-2
1482545587457097,-30,2,4,0,1,0,-2,8
1482545587457097,8,14,4,6,5,3,3,-8
1482545587479113,20,3,-4,-16,3,2,2,1
1482545587479113,-17,-7,16,-5,-2,-3,-1,6
1482545587480114,21,-6,-14,8,-3,0,1,-1
1482545587480114,-16,-9,12,-34,-13,-6,-5,-6
1482545587502632,-17,2,-15,6,4,3,2,-1
1482545587502632,-3,12,18,18,4,3,0,1
1482545587503632,14,-12,-15,-7,-5,-4,-2,-2
1482545587503632,-26,-1,11,-2,-1,0,-1,4
1482545587517144,4,-1,5,21,3,3,2,-5
1482545587517144,19,2,-28,-33,-1,0,0,3
1482545587517144,-10,3,15,-3,-6,-3,-2,-4
1482545587517144,-14,-1,13,8,-1,-2,-4,-2
1482545587539159,30,1,6,-2,4,3,-2,3
1482545587539159,-5,3,-9,25,0,0,2,-1
1482545587540160,-20,-14,-2,-9,-2,-2,-3,-8
1482545587540160,-3,1,3,4,1,0,-1,0
1482545587562176,29,0,-2,-6,0,0,0,2
1482545587562176,-18,3,7,11,-1,-2,-2,0
1482545587563176,0,0,12,15,0,-1,-1,-1
1482545587563176,14,-2,-14,0,-2,0,-2,1
1482545587577204,-1,-1,-10,7,-4,-4,0,10
1482545587577204,-7,2,32,-7,-4,-1,-3,-19
1482545587577204,7,-5,-41,-11,0,-3,1,0
1482545587577204,-3,-4,0,-1,3,6,-1,6
1482545587599757,2,2,0,-2,-6,-2,-2,-1
1482545587599757,2,-4,4,-9,-3,-1,-1,7
1482545587600228,-5,4,-2,-4,1,3,-1,-5
1482545587600228,-9,2,-8,-3,0,-3,2,-2
1482545587622260,-2,0,4,29,-2,-1,-3,-2
1482545587622260,3,-6,-21,-49,-5,-3,-1,1
1482545587623250,-7,-3,5,2,-4,-3,-3,-4
1482545587623250,2,-1,-13,2,-2,-3,-1,0
1482545587636271,2,0,-8,-5,6,3,1,-1
1482545587636271,-2,-2,16,26,2,1,-2,0
1482545587637259,-1,8,-12,-29,-7,2,0,1
1482545587637259,1,2,51,19,3,2,1,-1
1482545587659288,-1,3,4,8,-8,-10,-6,-4
1482545587659288,-9,-2,-5,2,4,0,0,1
1482545587660288,2,0,4,6,2,1,1,2
1482545587660288,1,2,-10,-22,-2,-2,0,-3
1482545587682304,4,1,0,-6,5,5,4,-1
1482545587682304,-6,-3,2,9,-3,-1,1,2
1482545587683293,-3,-3,-2,-5,-1,-2,0,1
1482545587683293,-2,-4,-11,1,-6,-4,-4,-3
1482545587705323,-7,-7,-7,-4,-2,-2,-1,-3
1482545587705323,7,2,8,1,-2,-1,-3,-1
1482545587706337,-4,-5,-1,2,-1,-2,-3,0
1482545587706337,-3,-3,-5,-2,-3,-2,-2,0
1482545587719333,-5,0,1,-9,3,3,4,0
1482545587719333,-3,1,0,-3,0,0,1,-1
1482545587720334,1,2,-8,1,-2,-4,-3,1
1482545587720334,0,4,12,-3,-1,-2,-3,-1
1482545587742363,-4,-5,23,-8,-3,0,-3,-3
1482545587742363,-2,3,0,5,-2,1,-2,0
1482545587743350,0,2,-4,0,2,-1,-1,-2
1482545587743350,0,0,-5,-6,2,3,3,0
1482545587756361,-3,-4,-8,-9,-5,-5,-4,-4
1482545587756361,-3,1,1,-1,-2,1,-1,-1
1482545587757360,-2,1,13,5,1,-4,-2,-3
1482545587757360,0,-3,-16,1,4,4,3,1
1482545587779388,-1,3,-9,-1,-3,-1,-1,0
1482545587779388,0,-6,-3,2,-1,-2,0,0
1482545587780387,1,-1,-3,-1,1,3,-2,0
1482545587780387,-4,-1,-2,5,-5,-4,-2,-1
1482545587802920,0,-2,-8,-4,-1,0,0,2
1482545587802920,-1,-5,11,3,-3,-2,-2,-2
1482545587803421,1,1,-12,-1,2,1,0,-2
1482545587803421,1,-5,-5,-1,0,-2,0,-1
1482545587816440,0,4,16,1,-2,-2,-1,-1
1482545587816440,1,-3,-13,-9,3,2,1,0
1482545587817441,-3,0,-10,1,-5,-1,0,-1
1482545587817441,0,-2,2,-1,-2,-4,-3,0
1482545587839464,1,0,3,-5,2,-1,-1,-2
1482545587839464,0,1,-9,10,2,0,2,0
1482545587840465,-1,8,20,3,0,3,-1,-2
1482545587840465,0,-1,-6,-5,-4,-4,1,0
1482545587862475,-1,-3,-9,3,-3,0,-1,-2
1482545587862475,-2,1,6,-3,-4,-4,-2,0
1482545587863476,-1,-4,-9,-1,-1,-2,0,0
1482545587863476,2,2,3,-2,-1,1,-2,-1
1482545587886493,-4,-3,-14,-1,1,-1,1,-2
1482545587886493,-1,5,34,16,-1,-1,-1,-1
1482545587887493,1,-6,-18,-11,-1,1,0,-1
1482545587887493,-1,1,2,10,3,1,-1,-1
1482545587899522,-1,-6,-5,12,-4,-4,-1,-3
1482545587899522,-1,2,-1,-11,-1,-1,1,0
1482545587900509,0,-1,9,6,0,-2,0,1
1482545587900509,-1,-1,-4,-6,-3,-4,0,1
1482545587922557,0,1,-6,-2,2,3,0,1
1482545587922557,-1,-1,-12,-6,0,3,-1,0
1482545587923557,4,3,3,-4,-1,3,-2,-1
1482545587923557,-3,-1,-8,-9,-8,-7,-3,-2
1482545587936566,1,0,7,18,2,6,-1,-1
1482545587936566,-3,-3,-21,-28,-5,-8,1,2
1482545587944577,-1,0,5,2,2,1,0,0
1482545587944577,0,-4,0,6,1,4,-2,-1
1482545587959582,-2,5,15,4,3,-1,-1,2
1482545587959582,0,-1,-8,1,0,1,0,-3
1482545587959582,-3,-2,-2,-1,-4,-4,-1,-4
1482545587959582,-1,-1,0,-3,-1,-1,-1,-3
1482545587981598,-1,-3,-3,-10,-3,-2,-1,1
1482545587981598,-2,-3,-3,-1,-1,0,0,1
1482545587989111,-3,0,4,-2,-2,-2,0,0
1482545587989111,-2,2,-2,4,1,0,-1,0
1482545588004632,0,-2,-9,-8,-5,-3,-1,-1
1482545588004632,-2,1,21,5,5,-1,-3,-2
1482545588006644,1,-1,-9,-1,-2,2,1,0
1482545588006644,2,-1,2,23,-1,-2,-1,-3
1482545588027666,-9,1,17,6,-1,-2,-1,-1
1482545588027666,0,0,1,7,0,-1,-1,-2
1482545588028667,-2,2,2,-16,-1,-1,-2,1
1482545588028667,-1,-2,-3,3,-1,0,-2,-2
1482545588041676,3,3,7,-4,3,-4,0,0
1482545588041676,0,-3,-4,0,-2,1,0,-2
1482545588048681,-3,-1,-1,5,-2,-5,-1,-1
1482545588048681,0,-1,-1,-10,-2,0,-3,0
1482545588064675,-2,-5,-14,-5,-4,-2,-2,-1
1482545588064675,-2,-2,-4,-6,-5,-4,-2,-1
1482545588066677,-1,-1,-3,1,0,0,-1,0
1482545588066677,-2,1,4,-3,3,3,2,1
1482545588087692,1,-2,-5,-11,-2,-2,-2,0
1482545588087692,2,2,-6,5,4,5,1,1
1482545588089197,1,0,13,2,-4,-2,0,-2
1482545588089197,-2,-1,-12,-2,4,-1,-1,-2
1482545588101206,-1,0,-8,-2,-3,-1,-1,0
1482545588101206,1,-2,3,1,-2,-1,-3,-1
1482545588109713,1,-1,0,2,-7,-6,-2,-2
1482545588109713,-4,2,1,-6,-4,2,-1,-1
1482545588124723,2,-2,-7,2,1,1,0,-1
1482545588124723,1,-1,-2,-1,0,1,-2,1
1482545588126725,-3,1,-5,4,2,3,3,0
1482545588126725,-1,-7,-22,-16,5,-2,0,1
1482545588147739,1,2,21,7,3,-2,0,-1
1482545588147739,0,-1,-12,11,-4,-8,-1,-2
1482545588148741,-1,4,8,6,0,1,-1,0
1482545588148741,2,2,2,-2,-4,-3,-1,-2
1482545588160749,-2,-6,-9,-10,-1,1,-2,-2
1482545588160749,1,1,0,-4,5,5,4,1
1482545588169772,-1,0,2,-3,-1,-1,-1,0
1482545588169772,-3,-3,2,4,-3,1,-2,-1
1482545588184783,2,2,-8,-33,-12,-7,-3,-1
1482545588184783,-3,-5,4,3,-1,-2,-1,-1
1482545588186784,-1,-1,10,3,3,3,-2,-1
1482545588186784,-2,-4,-16,-5,-2,0,-1,0
1482545588207334,-1,-1,-6,16,3,4,0,0
1482545588207334,-2,-1,-2,-7,-9,-13,-2,1
1482545588209337,-4,-5,-1,-6,0,-1,-1,-3
1482545588209337,-2,1,12,3,1,3,1,0
1482545588221345,12,-3,1,-2,-1,-1,3,2
1482545588221345,-5,-7,-15,-1,3,4,-1,-3
1482545588230352,3,1,-2,8,-2,-3,-4,-1
1482545588230352,-5,1,4,-2,-3,-4,-1,-4
1482545588245363,-4,-2,-3,1,1,2,0,-3
1482545588245363,2,0,5,-3,-1,1,-1,-2
1482545588246363,-4,-3,-9,-5,0,-2,1,-2
1482545588246363,0,0,0,1,-1,-2,0,0
1482545588267378,1,1,1,2,3,0,1,1
1482545588267378,1,-1,2,-3,2,2,1,1
1482545588269379,-2,-4,7,-6,-4,-6,-3,-1
1482545588269379,1,-1,1,10,0,6,-1,-1
1482545588281388,-3,6,17,-40,0,-6,-2,-1
1482545588281388,-7,-4,-2,6,-1,2,-1,0
1482545588290397,11,3,-12,-8,0,2,0,-2
1482545588290397,4,6,0,-4,-9,-3,-1,1
1482545588304407,-3,-6,-3,14,-7,-5,-2,-2
1482545588304407,-7,2,0,-5,1,0,-1,-3
1482545588306618,-13,-1,-13,-1,1,0,2,0
1482545588306618,22,3,9,3,3,2,2,2
1482545588327633,23,-5,-2,4,-1,-2,-5,-2
1482545588327633,-38,-17,-23,-9,-8,-5,-5,-2
1482545588328634,2,3,9,8,-3,-1,-1,0
1482545588328634,-18,1,-2,-10,-1,-3,0,-2
1482545588340642,18,-1,-5,8,-2,1,0,-4
1482545588340642,8,4,10,6,6,4,3,1
1482545588349648,-4,-1,12,-3,1,0,-1,1
1482545588349648,-7,-9,-38,-8,-5,-3,0,0
1482545588364671,-13,3,-11,9,-2,1,-3,-1
1482545588364671,5,-9,17,-13,-12,-3,-2,-3
1482545588366672,-1,0,-8,-2,2,3,1,-1
1482545588366672,4,0,12,10,-2,-9,-3,-2
1482545588387688,-12,0,-5,-9,2,1,-1,0
1482545588387688,6,10,0,12,1,3,1,2
1482545588389700,1,-12,-22,-13,-2,-1,-1,-1
1482545588389700,-3,-1,16,-6,-7,0,-3,-2
1482545588401210,-11,-1,-7,14,6,-1,0,0
1482545588401210,9,10,38,2,-3,-6,0,-2
1482545588417777,-9,-10,-31,-1,-12,-3,-2,0
1482545588417777,-1,10,14,3,7,2,-2,1
1482545588424787,-8,-8,-12,-2,-1,0,0,-1
1482545588424787,6,6,4,-3,0,0,-1,2
1482545588426788,6,-2,-7,17,-6,-4,-1,-3
1482545588426788,-13,-13,-7,-4,4,4,2,-1
1482545588447803,16,-1,10,8,-5,-3,0,-4
1482545588447803,-2,-3,-17,-10,-5,-1,-2,0
1482545588448796,-3,3,7,3,-2,-5,-1,-1
1482545588448796,-2,3,3,-1,1,2,0,0
1482545588460795,-3,0,2,-5,3,3,-1,1
1482545588460795,2,-3,-9,2,4,2,-1,-2
1482545588469807,3,1,15,0,-2,1,0,0
1482545588469807,3,0,7,0,-3,-3,-2,0
1482545588484830,-9,-1,0,-6,-3,2,1,1
1482545588484830,2,-4,-4,-1,-2,-5,-1,-1
1482545588486824,2,0,6,-10,2,-1,-2,-1
1482545588486824,-6,-2,-1,-5,0,-2,1,-1
1482545588507361,-6,1,1,9,9,6,2,3
1482545588507361,2,5,11,10,1,2,-1,0
1482545588509363,1,-5,-6,-18,0,-3,-1,-2
1482545588509363,2,-1,-3,1,0,-2,-1,-2
1482545588521373,-5,-1,-6,3,-2,0,0,-2
1482545588521373,-1,-2,-1,-8,-9,-5,-4,-2
1482545588530380,-4,11,-1,5,12,1,-1,-1
1482545588530380,9,-17,-11,0,-4,-5,0,1
1482545588545390,-2,1,5,2,1,2,-1,0
1482545588545390,-2,-1,-6,-12,4,4,2,1
1482545588546396,1,-2,-7,1,-6,-2,-3,0
1482545588546396,3,-2,-6,-7,-3,-4,-3,-1
1482545588567407,-2,0,0,1,2,-1,-1,0
1482545588567407,0,-1,3,2,-3,-1,-2,0
1482545588569408,6,-2,3,-1,2,1,2,0
1482545588569408,-14,-6,-3,3,3,1,-1,-2
1482545588581416,-2,-4,-1,-2,-9,-4,-3,-2
1482545588581416,1,3,4,-9,9,5,1,0
1482545588590410,-3,2,-7,5,4,5,2,1
1482545588590410,4,1,5,0,-2,-2,-3,-3
1482545588605426,0,1,17,4,-6,-5,-3,-1
1482545588605426,-1,-6,-13,6,0,-1,-2,0
1482545588606428,-1,-1,9,-7,-4,-3,-3,-1
1482545588606428,1,1,3,-7,-5,0,0,-2
1482545588627443,-1,-1,6,1,6,2,2,-1
1482545588627443,1,7,-9,-8,0,0,0,-2
1482545588629444,-4,-2,11,15,-3,-1,-1,-1
1482545588629444,1,1,-6,-8,2,0,-1,-1
1482545588641453,-2,-4,-2,-12,-9,-5,-3,-1
1482545588641453,-1,0,1,34,-7,-4,-1,0
1482545588650459,-2,-1,-2,12,4,2,0,0
1482545588650459,6,0,-1,-19,-2,1,-2,-1
1482545588664470,-2,-1,6,13,1,-10,2,1
1482545588664470,-4,-1,-15,1,1,1,0,0
1482545588671478,0,-2,-6,-4,1,4,1,0
1482545588671478,-1,0,12,-32,-3,-3,-2,-1
1482545588687489,0,0,-3,6,-5,1,-5,-2
1482545588687489,1,0,-4,3,-2,-3,-2,-2
1482545588689491,8,1,1,-11,-6,-4,-2,-3
1482545588689491,-11,2,-9,4,2,4,2,-1
1482545588701507,0,-2,-10,-11,1,0,0,4
1482545588701507,-5,-3,22,-1,-3,-3,2,-1
1482545588710088,3,-2,-13,9,-2,-3,-4,-5
1482545588710088,5,-1,-6,5,0,1,-8,0
1482545588724111,-6,-2,-21,-11,-4,-1,9,-10
1482545588724111,8,-1,-11,-14,0,2,-5,1
1482545588731165,-2,0,4,2,1,-1,-4,-2
1482545588731165,-2,2,-16,2,-4,-1,24,7
1482545588747177,16,0,-31,-9,2,2,-13,5
1482545588747177,-4,-2,6,-7,-5,-1,0,-2
1482545588749139,-1,-2,26,-9,-3,-5,-1,-2
1482545588749139,-4,-2,5,43,0,-4,-8,0
1482545588770193,-4,3,5,-33,2,4,3,0
1482545588770193,3,-2,-5,13,-3,-2,-2,3
1482545588772155,-2,-2,16,-1,0,-1,-4,2
1482545588772155,2,2,-15,16,4,7,-1,-2
1482545588784203,-5,-3,19,-16,-4,-10,1,0
1482545588784203,-2,-3,-22,-8,2,2,-2,-7
1482545588791278,-5,4,4,-8,-2,3,5,3
1482545588791278,-2,4,1,-1,-2,-3,-2,-1
1482545588807414,-4,-8,-10,6,-1,1,-3,-4
1482545588807414,-2,-3,10,-6,0,-5,-3,0
1482545588809402,0,-3,-7,-1,-2,-2,2,1
1482545588809402,2,0,6,-4,-5,1,-3,-2
1482545588837435,0,0,-2,6,-1,0,-3,0
1482545588837435,1,-1,1,-1,0,0,0,0
1482545588839420,-7,2,-2,14,0,0,2,0
1482545588839420,-2,-8,-39,-11,-1,-7,-17,-11
1482545588844440,-4,-2,36,13,0,2,20,27
1482545588844440,-3,5,-4,-7,-3,-3,-4,-46
1482545588851442,2,7,15,4,2,2,-1,1
1482545588851442,-2,-2,38,-1,3,1,2,-1
1482545588867494,7,2,23,0,-1,4,-6,-6
1482545588867494,2,0,4,3,-5,-12,-5,7
1482545588869442,1,-3,-5,-10,-3,-3,-5,-3
1482545588869442,17,7,24,7,1,-1,12,23
1482545588890545,-7,5,-23,2,2,3,8,-7
1482545588890545,-3,-3,1,-1,1,7,0,6
1482545588892017,-13,-7,-7,-19,-1,-5,-2,-10
1482545588892017,-5,-6,4,1,-3,-3,-10,1
1482545588904659,-4,-8,-39,6,-3,-1,-10,-2
1482545588904659,-2,-3,7,-9,-3,-3,11,10
1482545588911645,0,0,6,5,2,0,-10,-11
1482545588911645,0,5,31,0,1,0,7,-2
1482545588927651,-5,-9,-31,-4,3,2,-6,-5
1482545588927651,0,3,32,9,-3,-1,2,4
1482545588929660,4,-6,1,-4,-2,0,-6,2
1482545588929660,-10,0,-11,2,2,1,-23,1
1482545588949695,4,9,15,8,1,-1,34,15
1482545588949695,0,1,-8,-7,-4,3,20,10
1482545588951698,-1,-1,-3,-1,-1,-3,-30,-5
1482545588951698,5,2,7,-1,-2,0,13,11
1482545588964679,5,-4,-15,-3,-2,-6,-56,-56
1482545588964679,-3,-6,-19,1,2,2,52,32
1482545588972685,-7,-4,-2,2,0,1,-1,37
1482545588972685,-29,5,42,5,-1,8,13,-29
1482545588987710,-2,-14,-49,-25,-12,-22,-29,4
1482545588987710,-16,30,61,2,-2,-4,-20,-6
1482545588988711,13,-9,-69,-5,-1,0,-5,-10
1482545588988711,8,4,33,-5,-4,-1,10,14
1482545589009739,-9,1,-3,13,2,5,2,-5
1482545589009739,14,-7,-13,-1,-2,-3,-26,-11
1482545589011740,-4,-2,8,7,4,3,27,11
1482545589011740,-7,-3,-40,-24,-7,-3,-20,-18
1482545589023737,5,6,25,14,-2,0,14,7
1482545589023737,2,3,-23,18,-1,-4,-15,-10
1482545589032752,-3,6,16,-17,-3,-1,7,-6
1482545589032752,6,-10,-27,-1,4,3,1,1
1482545589047754,-3,5,-2,-9,1,-5,-4,-14
1482545589047754,3,-7,11,-49,4,5,9,28
1482545589048755,-10,-3,29,68,-10,-7,6,-14
1482545589048755,-2,-2,-20,0,5,-2,-21,-9
1482545589069784,1,-4,46,-7,-1,1,40,33
1482545589069784,-14,-13,-54,-10,-1,4,-17,-24
1482545589071783,2,0,-3,-24,4,1,-3,4
1482545589071783,10,-3,-1,14,-5,-7,16,-8
1482545589083792,17,1,-2,21,0,-1,-24,13
1482545589083792,9,-8,-3,10,3,0,-2,-12
1482545589092821,-6,2,32,-21,-3,-1,12,15
1482545589092821,10,-5,-36,5,-8,-8,-13,-28
1482545589107354,-11,1,7,-7,2,-1,-31,-10
1482545589107354,0,0,-14,8,0,0,7,5
1482545589109355,16,-1,-12,-2,7,3,-25,-10
1482545589109355,3,5,9,0,3,2,27,43
1482545589130379,-9,10,56,2,-8,-7,26,4
1482545589130379,4,-22,-75,-8,-5,-2,20,8
1482545589131379,1,16,1,-1,-1,-3,-45,-12
1482545589131379,-9,-6,5,-9,1,0,-7,-4
1482545589143382,-4,3,-3,-18,4,6,-1,-8
1482545589143382,-6,-2,-25,23,-1,-1,-5,0
1482545589152377,-3,-8,18,-13,-6,-9,-17,-27
1482545589152377,13,9,-15,-34,-1,3,14,7
1482545589167399,-20,0,13,-2,0,1,-3,-2
1482545589167399,8,5,2,-4,1,-1,-14,-4
1482545589169400,-6,-8,-25,-6,-1,-2,16,14
1482545589169400,-5,-3,19,6,-3,-7,-25,-9
1482545589190416,17,4,-6,4,0,7,14,-6
1482545589190416,-5,3,38,-1,4,1,-11,-5
1482545589191932,-19,0,-12,5,-1,1,19,2
1482545589191932,-1,-3,-14,5,0,-2,-3,-9
1482545589203938,1,0,7,9,8,6,-51,-8
1482545589203938,18,14,40,19,3,8,84,77
1482545589212944,33,5,-9,-13,-3,-1,1,-3
1482545589212944,-15,-13,-4,-12,2,1,3,-2
1482545589227959,-16,-13,-13,-16,-4,-4,-14,-4
1482545589227959,-22,23,13,7,5,-5,-25,-26
1482545589229456,19,0,48,64,2,-7,9,3
1482545589229456,-14,-9,23,-46,-17,-5,-8,2
1482545589250006,12,-4,-24,-2,-2,10,24,1
1482545589250006,-13,-10,-24,-42,12,-2,-21,-12
1482545589252007,-6,4,12,30,0,1,13,0
1482545589252007,7,19,35,-18,-14,2,-6,-20
1482545589264016,-14,-19,-100,-16,16,-7,-19,-49
1482545589264016,-17,10,64,0,-11,-9,-24,-15
1482545589273022,13,7,4,6,8,-6,8,8
1482545589273022,4,0,5,7,-47,4,9,-18
1482545589287532,3,3,13,14,67,21,41,50
1482545589287532,13,12,55,-2,-7,-1,-4,0
1482545589289539,-23,-18,-43,31,-1,-4,-2,-17
1482545589289539,-10,-16,-6,-38,-5,-15,-16,16
1482545589310048,3,0,9,23,-19,-8,7,-26
1482545589310048,3,-11,4,3,2,1,-16,8
1482545589312039,-4,20,47,0,1,1,9,-5
1482545589312039,4,-20,-105,-8,6,-9,7,21
1482545589324049,-8,4,32,-7,-14,-4,-9,-12
1482545589324049,3,-8,-7,14,-24,4,-16,-38
1482545589333064,7,1,-11,-26,25,20,-10,-25
1482545589333064,-4,0,-7,40,16,8,82,33
1482545589347574,10,5,4,-20,-19,-21,-82,-14
1482545589347574,-24,-2,-10,3,-4,-10,4,-2
1482545589349065,-3,-5,-31,-32,-14,-5,-3,19
1482545589349065,3,0,13,24,7,0,-20,-25
1482545589370090,7,-1,9,17,9,7,12,33
1482545589370090,3,-5,3,10,-4,2,20,7
1482545589372105,-6,8,5,21,2,6,-9,-9
1482545589372105,-9,13,16,-27,14,-4,2,10
1482545589384092,10,-6,23,-24,-18,-2,16,-14
1482545589384092,-17,-11,-59,-78,-2,5,-101,-30
1482545589393098,-3,0,-31,-54,-20,-16,92,106
1482545589393098,14,25,81,44,5,-4,-43,-52
1482545589407648,-3,16,-5,-5,-3,7,-1,20
1482545589407648,-12,-28,30,22,8,-13,-15,-34
1482545589409160,-6,-9,4,-8,-3,2,-24,-3
1482545589409160,-16,-21,-31,-11,-4,3,22,5
1482545589430212,55,52,8,18,-3,-10,-8,-29
1482545589430212,1,-35,-20,13,2,6,67,41
1482545589431714,18,-8,-16,-17,-8,3,-25,-20
1482545589431714,19,0,5,20,4,-13,-26,3
1482545589443722,-30,-15,-4,3,-10,-5,9,-8
1482545589443722,13,31,-9,-2,-12,-2,-8,-17
1482545589452763,3,-19,1,3,11,6,17,-12
1482545589452763,0,13,7,4,21,17,-12,-16
1482545589467763,6,-2,1,4,-6,0,20,42
1482545589467763,22,32,31,1,4,0,24,14
1482545589469265,-12,-11,-13,-14,-21,-17,-34,0
1482545589469265,-8,-32,-58,8,9,6,-50,-16
1482545589490289,-30,-24,63,11,-12,2,72,68
1482545589490289,-17,-7,10,20,1,-1,0,-25
1482545589491791,29,21,-1,0,12,5,-24,-17
1482545589491791,54,16,-7,16,5,2,35,47
1482545589503824,-62,-30,-25,-25,-24,-15,-30,-68
1482545589503824,6,-26,-64,-22,2,-3,-36,-73
1482545589512829,-48,18,46,40,1,0,-29,7
1482545589512829,22,20,-18,-34,-4,2,39,33
1482545589527876,27,10,-5,-6,5,3,-12,3
1482545589527876,-46,53,42,20,8,5,-26,26
1482545589529377,-21,-82,-51,-44,-17,-9,24,60
1482545589529377,-56,-16,16,20,4,4,20,-98
1482545589549968,86,-8,6,21,-1,-3,-19,16
1482545589549968,15,-20,4,10,8,3,-58,-24
1482545589551981,9,24,7,-63,0,8,52,20
1482545589551981,13,2,35,42,-8,-6,3,59
1482545589564020,46,-7,-70,-32,1,0,19,-29
1482545589564020,-67,-33,0,-66,3,-9,-29,-11
1482545589573060,-15,-3,9,61,12,6,-14,-8
1482545589573060,-16,-4,-8,46,-15,-6,0,-19
1482545589587580,13,31,-48,-26,8,15,-31,-24
1482545589587580,18,7,37,-87,11,8,39,22
1482545589589071,-21,-29,52,73,-15,-14,-46,-45
1482545589589071,47,2,-15,-86,-17,-37,-51,37
1482545589610118,-68,14,4,19,39,49,57,83
1482545589610118,8,28,-6,-10,-21,-12,-22,-37
1482545589611613,48,56,34,71,15,9,14,-35
1482545589611613,-45,-22,-37,-42,4,14,5,18
1482545589623669,52,10,119,42,-18,-33,-25,-34
1482545589623669,-2,-10,-113,3,-11,-7,70,75
1482545589632665,15,7,17,9,9,14,-5,-55
1482545589632665,-25,-8,-29,-4,31,-5,22,-61
1482545589647183,-49,-12,54,-26,-26,-10,7,-8
1482545589647183,12,6,-23,-20,-4,-10,-60,-23
1482545589653687,95,-13,-5,-70,6,7,-19,-18
1482545589653687,-70,65,80,98,-11,-2,16,34
1482545589670199,5,37,-94,-108,21,9,-71,-63
1482545589670199,-39,-18,72,5,-29,-7,89,40
1482545589671700,-4,-20,-44,69,7,-7,-64,-7
1482545589671700,71,5,23,-128,-6,13,63,59
1482545589683709,99,40,-1,23,8,-2,-50,20
1482545589683709,-22,-12,-82,54,-2,-4,-54,-40
1482545589692715,-124,-32,-50,-97,-9,-15,45,-10
1482545589692715,-17,-49,49,-17,2,12,-41,-5
1482545589707267,-17,-18,14,124,-26,-24,13,4
1482545589707267,53,-9,-50,-115,19,10,-10,24
1482545589713766,74,32,34,92,-13,0,56,78
1482545589713766,-21,-21,-54,32,-13,-1,43,25
1482545589730278,71,-19,3,1,19,8,8,27
1482545589730278,-40,-23,55,73,9,4,14,-60
1482545589731780,-113,-78,-33,39,-50,-38,-61,-46
1482545589731780,53,4,10,-3,19,9,7,0
1482545589752785,-14,-13,-23,-16,-8,-3,-11,1
1482545589752785,35,20,14,41,11,3,-25,29
1482545589754300,41,48,-3,-93,12,22,81,69
1482545589754300,9,35,-2,-25,-1,-2,-63,-42
1482545589766833,-54,-33,-16,19,-8,-14,16,-16
1482545589766833,-24,23,40,-3,5,2,-67,-24
1482545589773838,7,0,13,41,3,2,54,15
1482545589773838,3,4,26,30,-5,-1,-27,8
1482545589790436,-2,23,27,-33,12,7,30,-5
1482545589790436,49,-15,-4,-67,-20,-2,95,49
1482545589791925,78,3,-50,-110,10,21,-7,-27
1482545589791925,-85,-1,31,3,-24,-46,-77,-39
1482545589812929,20,-12,-13,-45,-19,-13,27,11
1482545589812929,23,-2,77,127,9,0,-107,-44
1482545589814431,91,9,-46,-98,33,20,80,59
1482545589814431,69,80,-26,-104,16,36,49,53
1482545589826950,-8,17,13,46,-4,-7,-57,-38
1482545589826950,-27,-57,-40,-118,-5,-8,37,24
1482545589841499,-4,25,62,68,-9,-12,-88,-72
1482545589841499,15,-13,-86,2,0,-5,-15,-27
1482545589850094,91,55,27,-34,20,14,16,52
1482545589850094,13,59,-15,-52,-8,0,5,-13
1482545589851586,-74,-24,2,35,-15,-16,-14,-37
1482545589851586,2,-15,45,-21,9,8,-10,-45
1482545589872618,-39,-40,6,55,-24,-26,-2,-37
1482545589872618,32,12,-30,29,7,4,31,18
1482545589878620,-31,10,12,-12,8,0,-111,-80
1482545589878620,-4,-12,-61,-3,-6,2,65,59
1482545589887120,-32,-22,4,34,1,3,-74,-41
1482545589887120,5,-1,21,-10,6,-1,25,14
1482545589893626,-18,13,5,80,10,7,-12,-13
1482545589893626,-19,-29,2,124,-23,-19,-23,-31
1482545589910217,-52,-24,-14,-52,-10,-10,9,12
1482545589910217,11,4,-17,52,7,14,21,20
1482545589911724,27,23,-8,-87,18,9,14,24
1482545589911724,30,-21,-15,22,2,4,8,5
1482545589932792,14,2,3,-13,-11,-6,-8,-66
1482545589932792,-41,-46,-6,0,-18,-25,-59,-26
1482545589934293,8,7,10,-75,-1,2,49,36
1482545589934293,8,6,-10,71,10,-1,-40,-47
1482545589946808,-13,-13,-29,-89,6,7,23,-6
1482545589946808,29,12,-6,15,-3,-1,-5,-6
1482545589953813,-18,0,25,-10,-7,-7,-15,-9
1482545589953813,-7,-15,-4,-3,8,1,-51,-47
1482545589970317,-11,-5,1,25,9,6,-11,20
1482545589970317,4,12,18,-65,-10,-4,9,-4
1482545589971821,-30,-8,-30,51,-14,-12,-5,2
1482545589971821,-2,-2,-21,-26,2,-1,-27,-13
1482545589994374,-27,-11,31,-9,-3,2,19,17
1482545589994374,8,9,2,-15,8,7,36,9
1482545589995874,-5,-6,-34,19,0,-6,-54,-43
1482545589995874,-3,-9,3,-19,-11,1,62,52
1482545590006871,-19,8,-15,9,-4,-1,-1,4
1482545590006871,8,1,16,44,6,4,0,3
1482545590013879,1,-6,-17,-33,-6,-4,-38,-20
1482545590013879,-7,2,31,10,2,-2,1,-4
1482545590029955,-20,-5,-17,-15,-2,1,28,24
1482545590029955,9,-1,1,26,0,-6,-4,1
1482545590031957,-6,-2,8,15,-3,-2,-11,-9
1482545590031957,-5,-2,19,24,-14,-2,-3,3
1482545590052955,-5,-6,19,13,15,8,12,13
1482545590052955,3,-3,-5,39,-4,-2,-11,-10
1482545590053976,-2,5,0,0,1,2,23,21
1482545590053976,-7,-8,17,16,-3,-11,-8,-5
1482545590066986,8,-3,-46,-37,-5,-3,3,11
1482545590066986,-2,2,8,28,3,7,19,10
1482545590073990,2,14,89,16,3,3,17,17
1482545590073990,-13,-28,-27,-34,-6,-4,-18,-11
1482545590090002,-13,-6,18,19,0,-2,-1,-8
1482545590090002,15,0,-4,16,7,-1,-20,-3
1482545590092003,-13,6,21,-3,-10,-4,31,23
1482545590092003,13,-1,4,-2,11,7,-32,-20
1482545590112523,4,9,-6,28,1,4,21,13
1482545590112523,-18,-12,5,-4,-6,-5,-11,-15
1482545590114521,6,-6,-32,-28,-1,-4,-30,0
1482545590114521,0,6,3,3,-1,-1,19,2
1482545590126531,-10,-8,-24,10,6,1,-26,-12
1482545590126531,6,8,13,0,0,2,38,22
1482545590135538,2,-6,-6,5,1,2,-14,-9
1482545590135538,-4,6,6,-28,0,-1,6,8
1482545590149547,-1,4,16,0,-2,-5,-4,-2
1482545590149547,3,-2,10,11,-10,6,7,2
1482545590155552,1,1,-18,3,15,2,12,6
1482545590155552,-11,-22,-27,-5,-15,-11,7,-7
1482545590172564,-7,-4,-18,-17,-4,-4,11,4
1482545590172564,3,2,-6,-10,1,-5,-26,-14
1482545590173565,0,-1,-4,-7,0,4,17,9
1482545590173565,3,8,35,41,3,-1,-26,-17
1482545590186573,-8,-5,17,32,-5,-2,29,29
1482545590186573,-4,0,-4,-9,-4,1,2,-3
1482545590195580,1,-5,-28,-20,-2,-1,-6,-1
1482545590195580,1,7,-20,-3,6,-12,-3,3
1482545590210093,-6,-10,4,-29,-11,-9,-11,-12
1482545590210093,6,3,14,30,-13,21,15,12
1482545590211595,0,4,-2,11,12,9,15,8
1482545590211595,-1,4,14,-14,4,3,-10,-7
1482545590232612,1,1,-14,3,5,-7,-9,-4
1482545590232612,-2,2,-19,-24,-6,-16,4,6
1482545590233612,5,-5,10,-9,-18,-11,-10,-11
1482545590233612,0,3,-2,-3,-3,4,-17,-3
1482545590245621,8,7,25,-1,10,16,14,9
1482545590245621,-3,0,12,15,5,-3,-15,4
1482545590254627,-8,-14,-17,-25,-8,-8,24,3
1482545590254627,-1,6,-1,-7,-2,0,-2,3
1482545590269638,1,4,-2,8,-4,-4,-8,-6
1482545590269638,-2,2,1,15,6,4,-1,-4
1482545590271639,-4,-1,11,43,3,1,-5,2
1482545590271639,5,4,-12,-93,5,6,13,8
1482545590292654,0,3,25,33,-13,-11,-7,-9
1482545590292654,-10,-13,-30,-1,-4,-15,2,0
1482545590293655,-1,2,3,-4,-14,7,-1,-1
1482545590293655,4,-1,-6,0,20,17,16,5
1482545590306166,1,-1,-8,-9,0,7,-3,-1
1482545590306166,3,2,1,-20,0,-6,-2,-5
1482545590315173,-4,3,-18,50,-2,-8,-3,1
1482545590315173,-1,2,59,-3,-13,-2,0,1
1482545590330183,-5,-14,-9,-5,1,-9,-11,-11
1482545590330183,-1,-5,6,-50,-3,-3,2,-2
1482545590331684,-2,0,-7,-14,-2,0,-1,-1
1482545590331684,4,1,-9,28,1,2,4,3
1482545590352700,-3,-2,-42,-13,1,-2,-4,-4
1482545590352700,0,5,13,22,6,0,3,0
1482545590354200,-1,0,-17,-14,-17,5,1,-1
1482545590354200,-2,-1,6,16,9,-1,-1,-11
1482545590366209,-5,-4,-20,-3,-2,3,-13,11
1482545590366209,9,18,46,-54,8,1,24,-5
1482545590375216,3,-5,-5,10,-6,-13,-8,8
1482545590375216,-10,-19,-45,12,-7,-4,0,16
1482545590390226,-7,8,0,-6,2,4,2,-51
1482545590390226,6,2,-9,31,5,5,-6,-1
1482545590391727,-1,-4,31,-9,3,-5,-19,-16
1482545590391727,2,8,1,-7,-7,-1,3,-2
1482545590412742,3,-1,3,-1,3,2,11,20
1482545590412742,-6,-9,-4,-1,-7,-5,-7,-3
1482545590414243,-1,-2,4,-10,5,3,-1,-10
1482545590414243,9,10,2,-2,5,1,-8,-4
1482545590426251,-2,-4,3,6,-1,2,-7,-24
1482545590426251,-30,-5,22,28,-6,-5,-8,-7
1482545590435258,-10,1,-62,-27,-5,-8,-1,6
1482545590435258,11,-7,33,45,2,-3,6,2
1482545590450268,11,6,-10,-34,2,4,-7,4
1482545590450268,-3,-4,10,19,4,4,3,0
1482545590451769,-4,5,10,-7,3,-1,-1,-1
1482545590451769,1,4,8,2,-4,-3,1,0
1482545590472784,-3,0,-37,-7,-9,-3,0,-2
1482545590472784,8,-3,-27,-8,4,2,-1,8
1482545590474285,-3,2,6,-1,2,1,7,5
1482545590474285,-1,0,6,-6,-3,-2,-1,-2
1482545590486293,-3,-5,6,1,0,-2,1,6
1482545590486293,4,2,-13,-2,1,-1,1,7
1482545590495300,0,-1,20,10,-5,1,-1,-2
1482545590495300,-9,-4,-16,-15,2,2,-4,-4
1482545590510311,-1,-4,15,5,3,-1,4,5
1482545590510311,3,-1,-14,4,-2,-1,-4,3
1482545590511812,4,4,12,-7,-1,-5,1,-4
1482545590511812,-3,-1,1,-8,-2,1,0,14
1482545590540331,-10,6,-59,3,1,-4,9,10
1482545590540331,6,2,16,5,-2,5,1,-9
1482545590541833,12,3,3,0,8,2,5,5
1482545590541833,-37,-21,-9,-9,-8,-6,-21,2
1482545590556851,-3,-5,27,1,-3,2,32,-25
1482545590556851,-2,-2,-31,-6,-9,-8,-35,-8
1482545590558344,7,-2,1,-9,3,0,18,7
1482545590558344,6,10,-1,9,2,2,-5,0
1482545590569852,5,24,22,-8,5,5,-23,4
1482545590569852,-5,-10,-20,5,-2,-3,37,6
1482545590576374,-6,8,12,-5,-4,-4,4,3
1482545590576374,9,5,-1,8,-4,-9,-39,-12
1482545590592881,-1,-9,9,10,-2,-2,25,25
1482545590592881,5,-2,-15,-18,8,12,-5,-8
1482545590594382,-3,-4,10,13,15,2,-6,0
1482545590594382,1,-2,-23,-17,-25,-7,12,-8
1482545590606388,1,-7,6,5,0,7,-5,-1
1482545590606388,0,4,16,18,17,2,-5,4
1482545590615415,-6,-17,1,-5,2,4,1,1
1482545590615415,-1,1,-10,-2,8,0,15,4
1482545590629438,1,1,15,6,-14,-6,-24,0
1482545590629438,-8,10,-4,-4,-6,-3,8,-6
1482545590636443,4,3,-7,-3,-5,-8,-42,-48
1482545590636443,-15,5,4,1,-4,2,40,-29
1482545590652940,1,10,20,-8,-2,-3,-26,-36
1482545590652940,-1,-10,-31,-17,-14,-9,10,-40
1482545590654451,-8,-4,-9,0,-1,1,-9,17
1482545590654451,5,-1,15,0,5,2,-17,9
1482545590675466,5,-13,4,8,3,-5,23,10
1482545590675466,3,12,31,-3,-2,0,24,-6
1482545590676966,6,8,1,-11,-15,-6,-33,-28
1482545590676966,3,-8,-19,-7,2,-1,-2,-5
1482545590689467,-7,-8,-2,3,6,-3,-29,-30
1482545590689467,14,-9,35,31,6,17,-39,87
1482545590696482,7,7,-23,-17,4,10,114,99
1482545590696482,-3,3,-30,-47,-12,-25,-80,-47
1482545590712531,-7,2,-5,4,-1,2,44,19
1482545590712531,-5,-7,-24,-11,0,-3,-25,-34
1482545590714524,1,-13,5,32,8,6,-66,-17
1482545590714524,-6,-2,-16,-6,-6,-2,61,16
1482545590735050,0,11,9,-19,-10,-12,24,24
1482545590735050,-6,0,-11,1,0,1,-7,-6
1482545590737060,-7,-18,20,-8,-4,-8,28,22
1482545590737060,14,3,4,12,5,9,-6,5
1482545590749557,1,14,-3,8,3,1,-23,-3
1482545590749557,-3,-5,-11,-1,8,2,22,20
1482545590756564,-6,-9,13,1,-3,-2,-20,-43
1482545590756564,2,1,-14,-2,-2,-2,-31,2
1482545590772574,-4,-10,-4,0,-3,5,74,50
1482545590772574,14,7,-19,-7,-5,-3,-24,-14
1482545590774576,0,4,-8,3,-3,-6,-20,-30
1482545590774576,-2,0,24,2,-1,3,-34,-20
1482545590795090,4,-6,-12,0,0,-1,53,34
1482545590795090,-11,5,-11,-11,-10,-10,-36,-40
1482545590796600,-1,-3,-6,-3,-2,-5,-30,-23
1482545590796600,5,0,2,5,4,6,46,10
1482545590809600,-3,-14,-19,9,-1,-8,-74,-51
1482545590809600,-4,0,23,-7,0,2,-1,-36
1482545590816606,-4,7,14,31,3,0,9,-20
1482545590816606,-12,-9,-34,-84,-17,-8,-16,23
1482545590834159,-3,4,18,2,6,1,-33,-32
1482545590834159,-3,2,22,38,-5,-6,-58,-49
1482545590835655,4,4,6,0,-1,3,82,91
1482545590835655,0,-9,-1,22,4,2,49,11
1482545590855207,2,-6,-6,-3,-2,-2,-56,-11
1482545590855207,4,0,-5,-14,3,4,30,7
1482545590856708,-17,-3,24,8,5,4,-30,-15
1482545590856708,1,2,13,23,2,-2,-9,7
1482545590870218,1,-1,-5,-13,-4,0,24,9
1482545590870218,-4,-21,-4,16,6,-3,-54,18
1482545590876221,12,23,-2,-17,-4,4,-8,25
1482545590876221,14,5,20,30,14,16,-23,40
1482545590892793,-1,1,-12,-20,1,11,28,16
1482545590892793,-8,2,4,-7,-20,-20,-32,-34
1482545590894289,1,-9,-3,-6,-2,5,-27,-33
1482545590894289,2,5,4,8,11,8,-24,-22
1482545590915388,10,-1,2,15,12,3,-1,2
1482545590915388,4,-2,6,-6,1,0,35,37
1482545590916883,-10,-13,-28,-20,-14,-11,52,25
1482545590916883,-7,-2,25,26,-8,-5,-20,-47
1482545590928892,4,-3,33,26,15,0,-1,10
1482545590928892,-20,-10,-28,-9,4,13,25,45
1482545590937899,-5,-9,5,-11,-3,-5,-15,-60
1482545590937899,-1,6,-14,-36,-4,-2,1,6
1482545590952900,-3,-3,18,-2,-9,-4,1,-10
1482545590952900,8,8,4,12,1,-2,-38,-32
1482545590954410,8,2,7,16,9,3,-5,-1
1482545590954410,1,-3,7,6,2,2,11,12
1482545590975431,-3,-4,0,6,-6,-3,-15,2
1482545590975431,6,0,2,-2,-1,1,7,20
1482545590976925,4,1,0,5,12,13,-1,3
1482545590976925,6,6,-22,-38,-13,-11,30,3
1482545590988977,-2,5,-27,-19,-5,-3,-5,1
1482545590988977,3,10,74,21,-6,-1,5,8
1482545590997977,-16,-11,-72,-63,-10,-9,-21,-18
1482545590997977,-1,-16,51,23,15,21,-12,46
1482545591012487,3,3,2,2,-7,-28,-51,-57
1482545591012487,-2,11,-12,-29,-11,-14,47,11
1482545591014489,1,3,8,16,-10,-8,7,7
1482545591014489,0,-2,0,11,-3,5,-23,-39
1482545591035003,-9,-17,-6,0,13,23,-35,-15
1482545591035003,-8,-3,-22,0,15,6,31,11
1482545591037004,-1,6,20,9,2,-8,-37,-37
1482545591037004,0,-7,-59,-6,-17,-9,18,-1
1482545591049050,-1,8,22,8,-2,-1,1,15
1482545591049050,-6,-5,-36,-33,-5,-3,14,-4
1482545591058063,-7,2,-3,-11,-12,-4,-19,-20
1482545591058063,-2,1,37,52,12,-5,3,0
1482545591072645,-1,-3,-74,-50,-8,2,13,7
1482545591072645,4,-1,35,22,1,-4,-25,-13
1482545591074146,3,2,14,13,5,7,10,15
1482545591074146,-12,-1,35,5,4,1,5,-22
1482545591095161,-7,-6,-65,-41,-12,-8,-11,3
1482545591095161,22,-7,33,7,8,7,-23,55
1482545591096662,9,3,23,25,-6,4,-8,2
1482545591096662,-12,19,-33,-75,-11,-13,17,9
1482545591108707,2,4,45,51,7,6,-34,-22
1482545591108707,-10,-8,-17,4,-6,-2,24,7
1482545591117714,6,1,23,24,1,0,12,7
1482545591117714,5,-4,-15,-6,6,-6,17,16
1482545591132729,-10,-6,3,-1,1,1,-21,-35
1482545591132729,1,14,-22,-11,-3,3,-10,-20
1482545591134230,-1,-4,-1,-3,0,-6,-7,8
1482545591134230,0,-4,-4,5,-6,1,18,-7
1482545591155269,-7,-10,23,-12,-1,-3,7,-12
1482545591155269,1,1,-10,26,3,-2,12,-6
1482545591156770,1,-5,-15,-1,-5,-1,-15,4
1482545591156770,-7,-5,-6,-61,0,-1,14,-2
1482545591168780,6,9,34,40,0,1,14,19
1482545591168780,1,5,-14,4,9,8,-6,5
1482545591177816,-7,-6,-9,-13,-5,-4,-2,14
1482545591177816,6,9,25,18,-4,-6,-26,-7
1482545591192865,1,0,-40,-28,1,3,17,18
1482545591192865,-7,-11,10,-46,-17,-9,14,-13
1482545591194366,1,6,-10,16,7,0,-5,-12
1482545591194366,3,-4,26,46,5,5,6,11
1482545591215381,0,4,-14,-31,-3,1,34,-19
1482545591215381,9,-18,-70,-35,-11,-7,-14,-13
1482545591216882,-1,10,16,1,7,-3,-11,-11
1482545591216882,-20,11,6,16,-2,0,41,26
1482545591228906,-4,-18,1,13,-1,1,-3,12
1482545591228906,1,1,7,6,3,1,7,9
1482545591237930,6,-3,1,-6,2,-5,6,-1
1482545591237930,8,-1,-66,-26,-19,-5,-16,-10
1482545591252936,-4,-11,4,44,2,7,-3,15
1482545591252936,-7,-3,23,-11,9,9,14,1
1482545591254436,0,11,64,8,-4,-2,1,8
1482545591254436,5,0,21,24,7,-3,-22,-13
1482545591274951,0,-4,3,3,-9,-7,4,7
1482545591274951,1,2,-3,9,-5,-5,-5,-5
1482545591276953,-9,-8,-24,-11,-2,6,8,1
1482545591276953,1,-2,18,6,7,2,-6,-2
1482545591288961,8,8,17,2,-3,1,2,7
1482545591288961,-2,5,-1,13,2,0,3,0
1482545591297965,-3,0,4,-2,-3,-4,1,2
1482545591297965,-3,-11,-11,-22,-4,-3,-8,-7
1482545591312476,-4,1,-3,-1,3,1,-5,7
1482545591312476,3,4,2,8,-4,-3,-7,-8
1482545591314476,-1,-11,15,-12,-11,-5,9,9
1482545591314476,-17,-6,-29,2,11,10,-7,-5
1482545591335003,1,13,47,61,4,-6,1,4
1482545591335003,-9,-13,-20,-79,-5,1,0,-1
1482545591337007,11,8,40,22,-10,-12,-1,0
1482545591337007,0,-1,50,55,-7,-11,-3,-3
1482545591349019,2,19,26,-12,32,16,3,8
1482545591349019,2,11,35,50,3,6,4,4
1482545591358022,2,-4,-69,-77,4,8,2,2
1482545591358022,0,14,62,48,-12,-9,-9,-4
1482545591372019,3,1,11,-9,-25,-17,-3,-2
1482545591372019,2,0,-32,-45,16,3,0,-2
1482545591374020,-8,-9,-74,40,-9,-3,-3,-2
1482545591374020,2,-7,-24,14,1,-1,0,-5
1482545591395036,3,-12,-1,-31,-1,0,-18,10
1482545591395036,-4,0,28,75,-3,-1,26,-3
1482545591397040,-1,-3,-21,-66,4,4,-2,0
1482545591397040,4,-4,-25,-23,4,3,2,7
1482545591409045,1,-4,15,65,3,-1,-13,-3
1482545591409045,-2,3,-44,-31,-1,1,1,2
1482545591418053,-7,-10,36,25,0,-4,1,-3
1482545591418053,5,1,18,0,1,2,-5,-3
1482545591432065,-1,-1,-37,-29,-3,-5,-2,-4
1482545591432065,5,-11,21,6,-5,0,6,10
1482545591434065,0,15,26,16,3,1,-10,-28
1482545591434065,-14,-9,-43,-20,6,5,-36,-24
1482545591455080,19,3,-26,-19,-6,1,60,2
1482545591455080,8,-1,5,13,-7,-11,-18,10
1482545591457082,-1,6,9,4,3,2,-4,4
1482545591457082,6,-9,-17,-12,1,-1,-29,-3
1482545591468091,-8,3,11,-14,-4,-3,13,13
1482545591468091,-8,-2,-13,11,1,-1,4,-4
1482545591478153,-4,-23,15,-4,0,-2,-8,-6
1482545591478153,0,-1,-8,-13,1,-2,0,-5
1482545591492199,-38,-8,5,-6,-2,0,-11,-4
1482545591492199,11,-2,-32,0,-2,-2,-7,-8
1482545591499170,-1,-3,18,0,4,0,4,12
1482545591499170,12,5,-22,-1,1,2,20,17
1482545591515279,5,-3,4,1,3,1,5,-2
1482545591515279,-4,-13,-15,-16,-5,-3,-39,0
1482545591516720,-6,7,-6,4,-4,2,64,24
1482545591516720,-1,-1,16,-4,-3,0,-15,-24
1482545591528744,1,0,-11,-7,-14,-8,11,20
1482545591528744,-3,12,49,-10,8,6,-12,-4
1482545591537852,-3,-18,-32,14,6,0,-6,-3
1482545591537852,1,4,2,-5,-1,2,15,4
1482545591551875,-6,-4,-30,-13,-1,-6,-21,-15
1482545591551875,-4,-15,16,19,-7,-7,-2,-6
1482545591558880,0,11,-4,-13,-3,4,-12,-5
1482545591558880,-2,0,10,-13,2,-8,3,-1
1482545591574892,5,3,-18,-1,-13,0,3,2
1482545591574892,-17,-9,-44,-8,1,1,-35,-6
1482545591576886,5,-5,-24,-16,7,5,10,-23
1482545591576886,8,18,50,-14,-11,1,-20,0
1482545591597947,0,-4,34,8,-2,-8,7,7
1482545591597947,-2,0,-23,3,-12,-13,-16,-19
1482545591598971,3,-5,0,-21,-21,-5,-25,-2
1482545591598971,-1,3,-44,-48,19,5,23,4
1482545591611973,0,0,25,26,0,4,-12,-6
1482545591611973,-3,6,25,-14,7,6,10,11
1482545591618996,-3,8,-19,17,-3,-11,-6,5
1482545591618996,15,-7,37,40,-2,0,13,12
1482545591635127,-5,-10,-5,7,-3,-5,-18,-11
1482545591635127,-6,-2,-22,12,26,14,18,4
1482545591636128,-2,3,4,-24,-12,0,-7,10
1482545591636128,-2,2,-6,23,17,6,23,2
1482545591657132,5,4,-22,-14,-3,1,-18,-10
1482545591657132,1,2,-26,-24,-18,-10,9,-3
1482545591659133,4,5,62,-34,12,1,2,6
1482545591659133,-13,-14,-87,37,1,0,-13,6
1482545591672143,1,2,40,-20,16,9,3,0
1482545591672143,6,-7,-28,19,-27,-13,4,-4
1482545591678147,4,7,18,4,10,1,5,-1
1482545591678147,-4,-5,18,11,-9,-7,-23,3
1482545591695155,-3,2,9,-27,2,5,16,7
1482545591695155,1,2,36,6,-13,-5,15,3
1482545591696156,-2,-3,-39,2,25,7,-7,-4
1482545591696156,-1,4,49,-5,-13,-4,-13,4
1482545591717674,-2,-12,-42,9,-3,-1,11,10
1482545591717674,1,8,35,-33,0,-2,-12,-7
1482545591719175,-3,-22,-61,32,-12,-10,5,-13
1482545591719175,-6,-3,14,-35,-3,2,4,-5
1482545591731685,-5,1,-35,3,4,-5,-13,-14
1482545591731685,-6,10,42,16,-2,1,-6,-22
1482545591738690,3,5,-9,13,-4,0,4,5
1482545591738690,19,-4,-15,-48,-3,-2,1,3
1482545591754703,-34,2,12,16,-7,-2,-28,-9
1482545591754703,0,0,11,10,7,3,40,21
1482545591756703,-7,1,-6,-22,-6,-3,-18,-8
1482545591756703,-1,2,-1,25,-1,-1,11,2
1482545591777717,7,8,51,10,4,1,-25,-3
1482545591777717,-3,-9,-3,-7,6,2,29,-63
1482545591778718,-10,10,10,2,-5,2,-11,-10
1482545591778718,-4,-2,13,20,-13,-6,1,13
1482545591791728,6,-12,-60,-39,-2,-9,-2,-49
1482545591791728,0,-1,10,-19,-4,0,-16,13
1482545591798733,1,-10,-13,15,-7,-6,8,6
1482545591798733,-5,-5,-9,-8,3,5,6,-24
1482545591815247,5,6,13,1,-5,-2,-15,-6
1482545591815247,0,0,4,-3,2,2,-1,20
1482545591816749,0,3,-4,-6,-8,-2,-14,0
1482545591816749,-5,-2,-11,-7,0,-5,4,13
1482545591837776,4,-2,63,26,-10,-7,4,9
1482545591837776,-6,-13,-85,10,7,-2,2,6
1482545591838777,1,6,37,-8,0,6,3,11
1482545591838777,-2,-4,-12,-6,5,1,-25,-16
1482545591850786,9,4,6,-1,0,5,9,12
1482545591850786,0,6,27,13,-9,-10,51,29
1482545591859791,1,-8,-10,3,1,-1,-27,0
1482545591859791,-1,1,-1,3,2,0,21,8
1482545591874802,1,-2,-16,-13,-4,-1,-18,-2
1482545591874802,6,-3,13,9,4,4,-7,13
1482545591876804,-8,0,4,6,7,4,7,-30
1482545591876804,26,4,21,0,-4,-5,21,50
1482545591897836,-16,0,-26,-3,-1,0,-7,5
1482545591897836,14,0,3,-1,2,1,-21,-9
1482545591898820,12,7,22,9,-1,-5,11,5
1482545591898820,-16,-20,-38,-1,-3,-1,-5,-16
1482545591910845,-3,-3,8,-7,3,-1,11,-1
1482545591910845,2,9,-11,-2,3,5,-8,7
1482545591926376,-11,3,-1,10,-5,-2,0,6
1482545591926376,-2,8,37,14,-4,-4,-5,-8
1482545591934900,-4,-19,-64,-46,-18,-7,6,2
1482545591934900,-2,12,37,-49,33,22,-9,-9
1482545591936900,-2,-3,12,72,-29,-8,8,8
1482545591936900,2,11,-11,-41,16,4,-2,-5
1482545591957898,15,3,15,45,9,7,12,6
1482545591957898,-7,2,-14,-12,-25,-12,-15,-3
1482545591958900,-4,-5,0,2,5,-4,-2,-2
1482545591958900,14,-10,10,-3,-16,-5,-6,-8
1482545591970919,8,8,10,12,12,4,4,6
1482545591970919,-29,-5,-7,9,1,-1,-3,-2
1482545591979914,0,-7,-11,-54,-1,0,-2,2
1482545591979914,-16,-3,-8,28,-15,-8,-7,-14
1482545591994937,-2,-5,-1,-11,3,-1,1,1
1482545591994937,5,0,17,10,-1,-2,-3,-1
1482545591996926,-1,2,-12,-12,8,1,-7,0
1482545591996926,-2,10,7,8,9,9,11,1
1482545592017468,2,-2,1,-20,-2,-1,2,-2
1482545592017468,1,-2,-3,13,-1,-5,-7,-2
1482545592019469,-4,3,-4,4,-5,-5,-4,1
1482545592019469,0,-10,-16,-11,3,2,-1,-2
1482545592031531,0,5,5,1,1,3,4,0
1482545592031531,-5,-8,-8,15,-12,-10,-8,-4
1482545592040541,10,0,1,8,18,7,6,6
1482545592040541,-5,4,2,-11,-5,0,-1,-4
1482545592054548,-5,0,-5,0,-2,-3,-1,-1
1482545592054548,8,-1,11,-8,1,1,1,2
1482545592056549,7,-11,-7,15,-5,-5,1,0
1482545592056549,-14,3,-11,-42,-6,0,0,-1
1482545592077564,4,10,6,12,0,-2,-3,-3
1482545592077564,1,-10,-1,-3,-2,0,1,-2
1482545592079560,5,10,2,2,5,3,5,0
1482545592079560,13,-9,-3,13,-1,-4,-6,-10
1482545592090573,-29,10,10,1,-3,-2,0,18
1482545592090573,1,-11,-28,-10,-4,-4,-2,1
1482545592100567,4,-4,26,-6,-2,0,-1,10
1482545592100567,1,3,-5,14,3,-2,-3,-6
1482545592116606,12,-2,1,-4,2,0,-1,-5
1482545592116606,-1,7,-6,19,0,-3,1,-1
1482545592118107,-19,-12,-5,-14,-3,-2,-3,7
1482545592118107,-4,-1,7,-4,0,-1,0,-4
1482545592137137,1,-3,-20,7,1,0,0,0
1482545592137137,5,9,14,4,1,0,-1,-1
1482545592139120,6,6,2,-8,-1,-2,-3,-12
1482545592139120,17,4,17,9,0,0,-1,13
1482545592151146,-17,-8,2,-8,-1,-1,0,-6
1482545592151146,11,6,1,5,3,3,-1,0
1482545592160152,14,-4,-18,-9,1,1,4,0
1482545592160152,-26,-1,0,7,-7,-7,-6,-6
1482545592175163,7,-3,8,16,4,2,0,1
1482545592175163,0,2,-14,-6,-4,-2,-2,-2
1482545592176164,-6,2,-4,-25,4,2,3,12
1482545592176164,1,-8,-4,60,-2,-3,-4,-32
1482545592197179,7,-4,11,-5,0,2,0,0
1482545592197179,-14,0,-21,-1,-5,-1,-8,-3
1482545592199180,-2,7,7,-19,1,0,6,4
1482545592199180,5,-4,-11,-15,2,-3,-6,6
1482545592211189,3,-7,-3,-7,-4,-4,-20,-12
1482545592211189,-12,-1,36,37,3,2,32,12
1482545592220198,9,-1,-10,-19,1,-4,-4,-5
1482545592220198,-13,-4,-16,-12,-4,2,5,5
1482545592235240,-1,5,19,-1,2,-1,-11,-9
1482545592235240,4,-14,-56,-26,-4,-4,-6,6
1482545592236241,-10,1,-7,16,-3,-2,7,3
1482545592236241,2,12,16,-4,4,2,5,6
1482545592257255,-9,-6,16,-1,0,-1,-15,-10
1482545592257255,-3,-7,-38,-9,-8,-3,20,6
1482545592259256,-3,-3,3,10,0,0,0,-8
1482545592259256,-1,-6,-4,-2,2,-2,-42,-37
1482545592271260,11,12,-4,-7,-10,-5,47,42
1482545592271260,2,6,35,12,14,12,-14,-10
1482545592280266,-4,10,-57,-31,-9,1,-1,-8
1482545592280266,-1,-9,-7,9,0,1,3,16
1482545592295277,-5,-7,-4,-1,-5,-6,-15,-31
1482545592295277,1,2,16,4,1,-3,13,23
1482545592296278,-9,8,8,2,-2,0,-15,-13
1482545592296278,17,-5,0,-2,6,2,10,20
1482545592317808,-5,-3,-19,0,-2,2,6,0
1482545592317808,9,5,16,-4,-3,-6,-44,-6
1482545592319306,-28,-12,7,15,2,3,7,-5
1482545592319306,-10,-3,-9,-21,-2,1,-29,-28
1482545592331304,14,13,4,23,0,-2,31,10
1482545592331304,9,-4,20,-34,-2,3,-30,-8
1482545592340340,-8,-12,-18,11,5,1,13,18
1482545592340340,-12,-13,-34,-4,-5,0,55,14
1482545592355350,-4,-9,-3,-22,-4,-3,-15,27
1482545592355350,6,-3,28,20,4,1,16,13
1482545592356851,7,7,51,22,5,-4,-61,-72
1482545592356851,-30,21,-14,-11,-5,1,53,29
1482545592377863,-18,-13,4,-11,-1,-1,-31,-25
1482545592377863,-19,-17,-34,-6,-10,-8,3,-20
1482545592379366,16,-5,23,6,-3,-8,-5,-23
1482545592379366,0,1,8,5,3,-1,-13,-3
1482545592391374,8,13,9,3,0,1,16,-22
1482545592391374,14,15,11,4,-1,4,-12,-17
1482545592400379,-9,-20,-55,-12,-6,1,18,26
1482545592400379,2,-8,4,-26,-4,-5,15,14
1482545592415890,12,2,-10,2,-1,0,-24,-7
1482545592415890,1,9,40,12,4,-4,-1,3
1482545592421394,3,-11,-91,-3,-4,-3,14,22
1482545592421394,6,11,87,-8,-5,2,-27,-3
1482545592438396,-5,-21,5,10,-1,-4,-26,10
1482545592438396,-1,12,3,-14,-1,3,36,15
1482545592439897,1,1,21,18,-6,-5,-9,-8
1482545592439897,8,6,-4,2,-11,-9,-33,-12
1482545592451415,-7,-10,-24,3,28,13,-25,-29
1482545592451415,0,9,11,25,4,6,27,4
1482545592460422,10,6,27,-34,1,1,-23,14
1482545592460422,-13,-12,-41,7,-8,-6,-17,50
1482545592474922,14,13,24,3,-8,-6,15,-1
1482545592474922,-8,-13,-30,2,-1,-6,-19,-1
1482545592476936,-3,-6,-15,-6,0,0,8,10
1482545592476936,-3,-8,2,-2,2,-1,-34,-32
1482545592497939,-1,-3,-63,-12,-6,0,10,14
1482545592497939,-13,4,43,0,2,-2,-7,2
1482545592499452,16,17,46,12,-2,1,7,2
1482545592499452,-12,-24,-22,-16,-5,-4,11,-3
1482545592511458,-9,0,4,3,-1,-4,8,-4
1482545592511458,6,0,-1,-4,-4,0,0,-11
1482545592520454,-2,5,21,-2,2,-3,-7,9
1482545592520454,1,-1,1,17,4,2,9,-18
1482545592534474,2,3,11,-10,-5,-1,-15,-7
1482545592534474,-23,-8,-28,14,-6,-7,-18,-24
1482545592541480,-8,-5,13,-28,-4,1,4,-1
1482545592541480,26,5,-46,81,9,3,-4,-5
1482545592557480,2,-3,-27,-112,-8,-1,14,15
1482545592557480,-18,-1,27,59,4,3,-2,-5
1482545592559482,2,0,4,29,-4,-4,4,-13
1482545592559482,0,5,12,-4,0,1,9,-5
1482545592580009,12,1,15,35,11,4,11,21
1482545592580009,14,0,-7,-35,2,3,-13,-15
1482545592582008,-4,7,2,-1,-3,-3,5,33
1482545592582008,10,-9,4,-10,4,4,0,-10
1482545592594506,-14,-4,-14,3,-11,-9,-40,-3
1482545592594506,2,-2,-5,-25,-4,-10,34,46
1482545592601511,0,0,2,22,-15,-3,-2,-14
1482545592601511,0,3,7,-42,24,17,6,4
1482545592617522,0,7,5,39,-2,2,5,10
1482545592617522,5,-3,-14,-1,-3,-5,-3,-7
1482545592619524,2,0,-23,-7,11,-1,-1,-6
1482545592619524,-1,2,-9,-9,-35,-5,13,15
1482545592640091,-1,4,16,16,25,6,16,-4
1482545592640091,-2,-14,12,-23,-6,-1,-10,-4
1482545592641610,-3,-7,7,-1,-4,-4,4,-1
1482545592641610,-1,2,10,25,2,-5,-20,-12
1482545592654614,7,12,-13,-20,6,10,14,2
1482545592654614,-1,3,54,65,-9,-5,-6,-5
1482545592661116,-5,4,13,-47,-1,-3,-10,-3
1482545592661116,-4,5,2,65,4,-2,7,2
1482545592677628,3,-2,-17,31,2,4,7,0
1482545592677628,0,2,-17,-87,-10,-3,-2,1
1482545592679129,-2,-11,-30,37,-2,0,2,-2
1482545592679129,-8,5,2,-33,3,-1,-1,0
1482545592700134,4,-8,5,3,-3,-6,5,-2
1482545592700134,17,0,-27,-23,4,7,-13,-7
1482545592701645,9,-2,-3,26,7,-4,-1,-6
1482545592701645,-2,-2,1,-54,-6,2,1,2
1482545592714654,-11,-6,7,-21,0,4,5,3
1482545592714654,3,-4,-13,7,-1,1,2,-1
1482545592721148,0,4,-7,18,3,2,0,-2
1482545592721148,2,10,68,-2,-10,-2,2,1
1482545592737661,-7,-11,-13,-19,-11,-10,-3,-5
1482545592737661,-5,-8,-1,-39,-2,-2,-2,-2
1482545592739162,-1,10,14,-5,-11,-8,-5,-3
1482545592739162,-1,2,-21,-29,1,-1,-3,-3
1482545592759679,-3,-1,-7,-15,-9,6,2,0
1482545592759679,3,4,4,12,30,11,2,0
1482545592761680,-6,4,4,-9,-8,1,0,-1
1482545592761680,-3,-5,13,-44,-7,-12,-4,-3
1482545592774689,2,3,14,46,-7,-6,-1,-1
1482545592774689,-3,-5,-29,-16,-1,2,2,0
1482545592782695,-1,0,30,2,5,7,5,2
1482545592782695,0,-2,-38,10,1,-5,-4,-3
1482545592797706,1,-1,4,-2,-4,1,-1,-1
1482545592797706,-5,-1,7,34,-6,-11,-6,-4
1482545592798706,-2,-9,-9,-30,1,5,1,-1
1482545592798706,9,1,3,4,1,-5,2,6
1482545592819722,-7,-3,-1,2,-6,-4,-13,-16
1482545592819722,6,2,-5,30,1,7,16,17
1482545592821723,-2,-5,-9,-41,-1,-4,-6,-6
1482545592821723,1,-4,-4,28,8,2,1,2
1482545592833735,-1,11,19,-10,-5,2,3,2
1482545592833735,-2,-6,-27,1,2,-3,-6,-6
1482545592842741,-4,-1,-12,13,-2,-1,3,5
1482545592842741,-5,3,8,13,10,4,-1,-1
1482545592857751,-7,-12,8,-19,5,-5,-2,-3
1482545592857751,-8,-5,-62,-17,-17,-14,-11,-12
1482545592859253,6,-1,6,8,9,5,2,-2
1482545592859253,1,4,12,5,1,5,1,-3
1482545592880267,3,1,-20,13,-2,-3,1,3
1482545592880267,-9,-12,-24,19,-1,2,-2,-1
1482545592881768,-5,-5,10,-21,1,-2,-2,2
1482545592881768,2,5,-10,6,0,-1,0,-4
1482545592893776,2,1,9,5,-6,-3,-2,2
1482545592893776,5,2,13,-7,3,1,4,-2
1482545592902783,-5,-1,-11,3,2,3,0,-1
1482545592902783,-5,-6,32,37,-8,2,-4,-2
1482545592917794,3,-4,-23,-18,-7,-9,2,5
1482545592917794,-5,4,11,3,3,0,-5,-3
1482545592919295,-1,2,4,12,0,-1,2,0
1482545592919295,6,-1,-11,-14,2,-2,0,-2
1482545592940348,-9,-4,-9,7,7,2,-4,-6
1482545592940348,-1,7,15,7,8,8,-1,0
1482545592941851,25,8,-1,-11,-1,-6,2,4
1482545592941851,-6,-6,-2,10,-8,-3,-15,-7
1482545592953860,-7,-5,0,12,-10,-5,15,-7
1482545592953860,-5,15,-6,-5,-1,-2,-12,-4
1482545592962866,-6,-16,24,-3,-5,-1,3,1
1482545592962866,9,-9,-9,-21,1,-3,13,10
1482545592977876,-1,3,-20,46,11,9,7,3
1482545592977876,-11,1,49,-71,-27,-9,-19,-9
1482545592979378,0,8,6,30,11,-4,-5,-4
1482545592979378,-1,2,-28,44,6,9,-10,1
1482545593000392,4,1,4,-66,8,5,31,20
1482545593000392,8,-6,-4,28,-2,-3,2,5
1482545593001893,-6,0,1,12,-8,-4,-3,-7
1482545593001893,-6,-1,9,-19,-6,-5,-19,-1
1482545593015403,3,4,4,0,8,3,9,9
1482545593015403,3,2,-9,-2,-2,2,6,5
1482545593022918,-6,-4,-14,-19,-6,-1,-16,-10
1482545593022918,-9,1,7,4,6,2,37,16
1482545593037918,7,-7,-4,-31,-11,-5,-18,-14
1482545593037918,-5,1,23,46,-8,-8,-2,3
1482545593039430,-11,-5,-33,-72,0,2,-4,-2
1482545593039430,0,-7,17,32,-8,-8,-4,-8
1482545593059944,-11,11,5,6,-2,-2,-8,-1
1482545593059944,1,-16,-13,-20,4,-1,-7,-16
1482545593061948,-1,9,4,16,7,5,13,10
1482545593061948,5,0,-8,-16,-9,-6,-12,-12
1482545593073956,-1,-3,-7,-27,-24,-6,6,3
1482545593073956,3,9,-5,13,9,3,-32,-5
1482545593082963,-4,2,8,-2,-7,6,41,10
1482545593082963,-6,-4,-28,-29,0,-6,-19,-15
1482545593097470,13,-2,15,43,-4,-3,-23,-9
1482545593097470,-21,-14,-10,-21,-3,-2,14,14
1482545593099472,4,3,6,12,-5,-5,-19,-3
1482545593099472,3,4,10,-13,-3,1,10,6
1482545593119986,1,-5,-10,-4,-2,-3,-3,-8
1482545593119986,3,4,-6,13,4,0,-9,-8
1482545593121988,0,-3,22,28,2,-2,5,2
1482545593121988,-2,1,-38,-14,-7,1,5,-2
1482545593133996,-7,-4,-4,-1,6,-3,-18,-8
1482545593133996,6,15,29,3,30,17,21,5
1482545593143002,-4,-25,-70,16,-18,-12,-11,-1
1482545593143002,-2,0,18,-6,-1,1,2,0
1482545593157513,-2,-4,22,-8,-5,0,0,3
1482545593157513,3,4,6,17,-2,1,10,2
1482545593159506,4,5,-5,-7,2,4,-2,-3
1482545593159506,-4,2,10,3,3,-3,-9,-5
1482545593180029,-2,-1,-6,3,1,-5,5,4
1482545593180029,5,-6,15,-4,-3,-4,4,-3
1482545593182030,-11,6,-6,3,2,6,-12,-6
1482545593182030,-5,-13,-6,-10,-3,-8,3,-1
1482545593194031,2,-1,7,14,1,0,-12,1
1482545593194031,10,0,26,-8,-3,-4,22,21
1482545593203045,-5,-14,-22,-6,-3,-3,-8,-8
1482545593203045,-6,1,5,9,3,3,-6,-5
1482545593217546,-1,-7,-57,-12,4,10,8,-1
1482545593217546,-1,7,18,7,-9,-17,-11,-6
1482545593219047,7,0,22,24,5,5,8,7
1482545593219047,-2,4,-15,-64,-4,-1,-5,0
1482545593240074,-6,-2,27,24,3,-3,-9,-5
1482545593240074,-2,2,63,50,-2,11,0,-2
1482545593242063,12,15,-26,-34,6,7,9,5
1482545593242063,-16,-12,-40,-24,0,-10,-1,-5
1482545593254072,-4,5,12,17,-2,1,-1,-1
1482545593254072,-4,-4,2,-7,-8,-8,-1,-2
1482545593263080,-1,8,37,28,4,1,-4,-1
1482545593263080,9,-2,2,13,-4,5,7,6
1482545593277598,4,3,-8,-30,3,0,7,5
1482545593277598,-6,-14,7,1,-1,1,-12,-5
1482545593279104,-4,-5,-29,-8,-9,-8,6,0
1482545593279104,6,4,-10,0,2,-1,-3,-1
1482545593300114,-2,1,51,19,-3,-4,1,4
1482545593300114,0,2,-39,-20,-2,3,-1,-10
1482545593301621,-2,-3,20,-2,-7,-11,-8,-1
1482545593301621,-2,2,-1,-6,1,5,7,3
1482545593313623,5,18,49,15,5,1,3,-3
1482545593313623,7,9,-33,-8,-2,-3,-6,1
1482545593322621,-21,-11,18,3,1,-3,-3,-5
1482545593322621,-7,-2,-30,16,0,8,-2,-4
1482545593337646,1,-6,-32,1,-8,-20,-1,-1
1482545593337646,5,-6,-30,-22,-1,7,6,3
1482545593339147,9,12,34,22,7,5,-1,2
1482545593339147,-17,-6,-7,8,-7,0,1,2
1482545593360164,-15,-24,-39,-33,-1,-3,-7,-9
1482545593360164,0,-7,-3,-10,9,-3,1,-1
1482545593361666,19,47,-1,-2,-1,4,-6,-6
1482545593361666,2,-23,42,15,-2,-6,2,3
1482545593373672,-1,-6,-16,4,7,4,-1,-1
1482545593373672,-1,4,2,10,0,0,0,-1
1482545593382674,-14,-17,-28,0,5,7,1,3
1482545593382674,9,8,36,-4,0,-1,-1,1
1482545593398680,-8,7,12,5,-6,-2,-5,-6
1482545593398680,-2,-13,-17,-8,-5,-3,4,1
1482545593403678,0,-5,-3,-11,-2,-3,0,2
1482545593403678,4,10,16,15,-1,-1,0,0
1482545593420199,0,-5,-1,-17,-9,2,0,-1
1482545593420199,-2,3,-24,-38,4,5,0,0
1482545593421701,-3,-9,11,10,-7,-5,-1,-2
1482545593421701,6,2,0,-4,3,-6,-1,-1
1482545593433709,8,1,8,8,-1,3,2,3
1482545593433709,-29,2,15,-1,-5,-2,-5,-7
1482545593442705,1,-13,-17,-5,-5,-7,-5,-4
1482545593442705,6,19,43,-4,7,3,3,2
1482545593457228,-2,-28,-86,-14,4,6,2,2
1482545593457228,6,8,4,14,0,-2,1,1
1482545593463732,2,-8,14,0,0,2,-3,-1
1482545593463732,-5,-7,-20,23,1,-6,-4,-4
1482545593480244,4,8,12,-43,-1,3,4,1
1482545593480244,-2,3,17,38,-12,-5,-3,-3
1482545593481743,-3,-28,-44,-6,3,-8,-1,0
1482545593481743,2,4,-13,-3,-6,1,1,-2
1482545593502758,2,4,20,-7,4,1,-2,-1
1482545593502758,4,-3,-17,-8,-4,1,-1,1
1482545593504258,-1,9,24,-6,-3,0,-1,0
1482545593504258,1,2,-15,-5,-2,-1,-1,2
1482545593516767,-4,-10,-1,13,2,1,0,-2
1482545593516767,3,1,-1,-8,-5,-4,-1,-3
1482545593523763,1,7,-8,-8,1,3,2,3
1482545593523763,-2,-1,9,13,2,1,-1,1
1482545593540287,1,-1,-3,12,-2,-2,-4,-1
1482545593540287,-1,-15,22,-6,1,-3,-3,0
1482545593541788,-5,-16,-71,-8,-2,0,1,-2
1482545593541788,0,-2,-2,-7,-1,0,-2,-2
1482545593562803,-1,4,13,10,-8,-10,-1,-1
1482545593562803,-1,-9,-7,-11,3,3,0,0
1482545593564304,-1,9,20,10,4,-2,0,-2
1482545593564304,3,3,-2,-27,-14,-9,1,0
1482545593576810,-1,4,22,24,11,4,-2,0
1482545593576810,-2,1,-5,-12,-5,0,0,0
1482545593591320,0,10,16,-33,2,1,0,3
1482545593591320,3,1,13,25,-4,2,1,0
1482545593600326,1,1,-26,-7,-1,-4,-2,-1
1482545593600326,-1,3,9,-11,-11,-7,-1,-2
1482545593601818,0,-3,10,7,-12,-4,-1,-2
1482545593601818,-2,-6,-11,0,21,8,3,2
1482545593623343,-1,5,3,9,-15,-4,-3,1
1482545593623343,-1,-1,-19,-12,12,5,1,-1
1482545593624844,-3,-8,11,-1,-5,1,2,-3
1482545593624844,-3,-2,-4,0,-4,0,-3,-3
1482545593636852,0,2,-17,-5,1,0,0,-1
1482545593636852,5,4,4,5,-4,-6,-3,0
1482545593643858,-4,-6,-36,-4,-1,-1,-4,-4
1482545593643858,-1,-8,5,5,8,7,4,0
1482545593660358,-2,-5,13,4,1,0,-1,-2
1482545593660358,1,-5,-22,-6,-3,0,1,3
1482545593661870,1,12,29,7,0,-4,-2,-8
1482545593661870,1,1,-3,-3,3,2,0,-1
1482545593682881,-1,-3,-6,-2,-6,-2,-2,-1
1482545593682881,-3,-3,-16,6,-1,-5,1,-2
1482545593684387,3,2,31,16,4,3,2,4
1482545593684387,-2,-2,-23,-29,-2,-1,-2,-2
1482545593696895,-2,1,23,14,1,-2,0,-2
1482545593696895,3,2,-8,7,2,0,0,3
1482545593703899,0,3,8,-5,-3,-1,-2,1
1482545593703899,0,2,-7,11,-6,-3,0,-2
1482545593720402,0,5,17,5,7,4,2,2
1482545593720402,-3,-5,6,4,-3,-3,1,-3
1482545593721903,-2,-4,-12,-30,-8,1,-1,0
1482545593721903,-6,-8,-19,10,-11,-8,-3,-2
1482545593742430,0,1,1,-20,-3,-3,-3,-2
1482545593742430,-1,2,-10,0,-3,1,-1,-2
1482545593744431,0,2,8,9,4,5,4,2
1482545593744431,-5,4,13,-15,7,3,-2,0
1482545593756437,7,-1,7,17,-7,-6,0,-1
1482545593756437,1,-3,-26,5,3,1,1,2
1482545593765443,-5,-11,15,-24,-7,-9,-10,-9
1482545593765443,-1,-1,11,10,-4,-3,-2,-1
1482545593779956,-5,-1,-18,7,5,3,1,-1
1482545593779956,3,2,0,-24,4,1,0,-1
1482545593781957,5,1,-18,16,3,4,1,4
1482545593781957,-3,-3,-1,-21,1,0,-2,-2
1482545593802470,0,2,14,4,-3,-3,-3,-1
1482545593802470,0,1,4,23,0,-1,-1,-7
1482545593804471,-3,-4,-20,-64,-3,-3,-1,5
1482545593804471,1,1,7,21,-2,-2,1,-2
1482545593816470,-1,3,-5,4,-1,0,-1,0
1482545593816470,-4,-1,11,-4,-1,1,-2,-1
1482545593825475,-4,0,-13,22,1,-3,-2,-6
1482545593825475,0,-2,-25,-15,1,4,-1,0
1482545593840000,-2,-3,4,-18,0,1,-2,0
1482545593840000,-4,-1,5,16,1,-2,0,-4
1482545593842047,0,1,9,11,-1,-2,-2,0
1482545593842047,0,0,-7,-3,0,-1,-1,1
1482545593861061,-3,-2,-4,0,-3,0,-7,-2
1482545593861061,-4,0,-1,-3,-3,-5,1,-3
1482545593870091,9,1,12,10,4,-1,-4,30
1482545593870091,22,-3,3,36,-4,-2,14,-36
1482545593876085,-29,-2,5,-29,-1,0,-1,-2
1482545593876085,10,3,-17,5,-1,3,-4,-1
1482545593885079,-19,5,23,23,-5,-3,-2,11
1482545593885079,11,-8,1,11,-3,-7,-10,3
1482545593900102,7,-6,-39,-21,3,2,0,-3
1482545593900102,-3,6,18,-14,6,9,2,1
1482545593901103,8,9,22,29,-1,-9,3,-8
1482545593901103,-5,-1,-4,-51,10,7,-41,-2
1482545593922117,4,2,-16,18,-8,6,91,27
1482545593922117,0,3,31,2,0,-5,-36,-7
1482545593924124,-5,-15,-22,-28,-9,-5,27,-21
1482545593924124,-8,7,24,4,-5,-5,-9,6
1482545593936139,1,0,22,5,4,-2,-33,-9
1482545593936139,1,1,-19,15,-2,-5,-43,-16
1482545593944656,8,-2,-15,9,3,7,83,61
1482545593944656,-11,-7,-12,-15,-7,-5,-14,1
1482545593959670,8,3,20,7,1,0,-13,-3
1482545593959670,-1,-2,3,-2,-4,-2,18,6
1482545593961671,-2,3,-11,0,5,2,-47,-28
1482545593961671,3,0,-12,-7,-2,-1,15,10
1482545593982687,0,-2,13,5,-1,-3,-9,2
1482545593982687,-9,-8,-11,-5,-4,-2,2,-9
1482545593983682,-2,1,-7,-8,-1,1,-18,-10
1482545593983682,7,2,3,12,1,0,17,12
1482545593996723,-12,-4,-1,-7,-1,-1,-9,-14
1482545593996723,-2,-2,-3,-3,-1,-1,7,7
1482545594003728,8,-1,-4,-26,0,4,-18,-15
1482545594003728,-13,-2,8,-10,-6,-6,16,6
1482545594019714,-2,-2,11,32,-5,-7,-22,-9
1482545594019714,1,2,-26,-23,15,13,18,11
1482545594021711,-4,0,16,-31,-5,-2,-6,-4
1482545594021711,-2,-1,23,44,-4,-3,-22,-20
1482545594042345,7,2,-6,-13,0,0,14,8
1482545594042345,-11,-9,-41,1,-13,-10,25,12
1482545594044337,0,4,5,7,4,-1,-22,-10
1482545594044337,0,0,-6,-13,1,3,-10,-3
1482545594056359,2,1,3,8,0,0,10,4
1482545594056359,6,4,13,7,-3,-1,-10,-5
1482545594065351,-5,-3,-8,1,1,-1,-4,-7
1482545594065351,-1,-1,-6,-7,-1,-2,4,4
1482545594080377,0,-5,-7,5,1,-2,-16,-6
1482545594080377,3,1,7,-8,-1,-1,-4,-1
1482545594081374,-3,0,-1,8,-4,-2,1,0
1482545594081374,-2,-1,6,3,0,0,5,-4
1482545594102504,0,2,-12,-10,2,3,-3,-1
1482545594102504,-3,-3,4,-6,-3,-1,1,1
1482545594104485,-3,-2,-3,12,0,1,3,1
1482545594104485,-2,-3,-6,1,0,-1,2,6
1482545594116473,0,-1,-6,-9,1,-1,-2,-2
1482545594116473,-4,0,-1,-2,-7,-4,-2,-8
1482545594125482,1,3,18,38,-3,-1,-8,-2
1482545594125482,-1,0,-6,-27,3,3,1,-1
1482545594147615,1,-6,-9,-16,-3,-1,7,8
1482545594147615,1,-1,12,-3,3,-2,-2,0
1482545594149606,-6,-6,-9,26,-3,-1,-5,-6
1482545594149606,-3,6,9,15,-2,-1,4,3
1482545594162612,5,0,-7,-5,-3,-4,-12,-3
1482545594162612,9,0,-2,-7,-3,0,10,2
1482545594163626,3,-3,-5,-18,-5,-3,-2,-1
1482545594163626,-3,-2,-3,-4,1,-1,1,-2
1482545594175638,-5,-2,1,1,-2,-3,-30,-23
1482545594175638,-2,-1,6,7,2,-1,24,24
1482545594184737,0,-6,-7,-11,0,-5,-48,-29
1482545594184737,8,4,-3,4,-2,6,39,11
1482545594199747,-3,4,6,4,3,2,10,21
1482545594199747,-17,-3,-6,-4,-7,-4,13,5
1482545594201693,2,1,9,26,1,5,-13,-2
1482545594201693,1,-3,-10,-2,-1,-7,1,0
1482545594222721,1,1,7,-2,-9,-5,-13,-2
1482545594222721,-2,2,0,3,4,7,-7,-8
1482545594223707,1,2,-2,-4,1,1,19,8
1482545594223707,-2,-4,-10,-2,2,3,-16,-1
1482545594236250,0,-1,4,0,-2,-7,8,-3
1482545594236250,0,-1,14,16,-11,-11,-17,-6
1482545594244853,-1,4,-8,-1,5,6,16,6
1482545594244853,0,-1,4,-22,-2,0,-8,-5
1482545594259868,-1,-3,-9,2,1,0,-4,-5
1482545594259868,6,1,-5,16,5,3,5,-2
1482545594261859,3,1,19,-25,3,1,5,22
1482545594261859,-6,1,-6,17,4,-3,-8,-33
1482545594282926,-3,3,-2,7,0,0,7,1
1482545594282926,-2,-1,4,-2,-2,0,-16,-10
1482545594284871,10,2,-6,0,-6,-6,-18,-10
1482545594284871,0,-11,-19,-10,-3,-2,34,20
1482545594295935,-10,-1,8,-6,-5,-2,-7,-4
1482545594295935,2,5,5,0,0,0,-4,-9
1482545594304906,-3,2,-4,-7,1,0,9,-1
1482545594304906,2,1,-5,-4,0,1,-23,1
1482545594319953,0,-12,0,2,0,1,8,1
1482545594319953,-1,2,14,-9,-1,0,12,9
1482545594321908,-6,-16,-33,-7,2,1,-3,-2
1482545594321908,1,11,16,15,-5,-7,6,12
1482545594341950,1,1,-5,-7,-1,3,4,-1
1482545594341950,0,-1,2,-2,5,2,-7,-1
1482545594344054,0,-4,-5,-1,-3,-1,3,0
1482545594344054,-2,-1,8,2,0,2,2,-6
1482545594356061,1,-3,-4,3,-1,-1,-2,1
1482545594356061,2,-4,-10,-12,-7,-5,-24,-11
1482545594365139,1,8,-1,-6,-2,0,18,5
1482545594365139,3,-2,-5,9,-4,-2,-16,-10
1482545594387208,-4,-10,-29,-54,-5,-5,6,9
1482545594387208,8,-5,-15,14,0,-1,-12,21
1482545594389156,-16,3,17,5,-3,-2,7,-2
1482545594389156,4,1,-1,-18,1,4,-10,-3
1482545594402219,0,1,17,13,7,7,-5,-11
1482545594402219,-1,-17,-14,10,-4,-9,7,5
1482545594404166,0,-6,-6,-31,-8,-3,-2,16
1482545594404166,-1,3,21,49,12,0,3,8
1482545594425188,14,7,-38,-55,-2,3,-3,1
1482545594425188,1,-2,24,28,-4,0,10,6
1482545594427199,-2,0,17,5,-3,-9,-11,-22
1482545594427199,-9,-2,-11,-18,-1,1,-15,-3
1482545594440340,1,-2,-4,17,-1,-4,0,-20
1482545594440340,2,6,-6,-25,3,5,11,7
1482545594441824,-6,-1,-11,7,1,-2,-25,-5
1482545594441824,8,0,-9,-53,-2,3,46,-42
1482545594462210,4,8,59,70,-4,-5,-5,28
1482545594462210,-20,2,-1,8,-15,-15,-13,-9
1482545594464209,5,-4,-4,-20,8,6,1,-7
1482545594464209,-4,-2,-20,-9,-1,1,-10,13
1482545594485224,-2,1,-1,7,4,2,2,-3
1482545594485224,6,0,-32,-68,8,5,3,-15
1482545594486213,-3,2,58,73,-15,-9,4,5
1482545594486213,-7,-7,13,-5,-5,-6,-16,1
1482545594500236,2,-2,-15,-3,0,0,-20,-12
1482545594500236,3,3,10,20,4,4,43,23
1482545594501229,3,10,-21,-36,11,6,1,-16
1482545594501229,-7,-11,24,18,-9,-4,-3,0
1482545594522252,-9,5,7,21,-6,-2,-9,-1
1482545594522252,-2,-3,-19,-19,2,1,-11,-6
1482545594524237,4,3,-4,3,-1,1,8,10
1482545594524237,-7,2,5,11,4,5,2,6
1482545594544875,3,-1,8,-5,-10,-9,-9,-36
1482545594544875,4,-1,-1,4,-1,-1,-10,2
1482545594546859,5,-4,-14,-2,4,3,18,25
1482545594546859,-10,1,-14,-5,-6,-5,-20,-18
1482545594559960,-10,-9,-12,15,3,2,2,2
1482545594559960,1,1,2,-47,-5,-7,-3,-9
1482545594561940,-1,-4,3,29,-7,-1,-3,-2
1482545594561940,3,-4,9,34,3,3,27,30
1482545594582948,3,5,5,-23,1,0,-26,-9
1482545594582948,-9,-9,-22,17,0,4,41,11
1482545594583948,19,5,-19,-30,-1,-4,-3,-8
1482545594583948,-15,-1,4,-6,-1,-3,-18,5
1482545594605018,-1,1,-4,-4,3,2,9,6
1482545594605018,-7,2,33,18,-4,-4,-29,-9
1482545594606993,4,3,29,10,1,-4,-7,-4
1482545594606993,4,-7,-90,-29,-9,-1,15,5
1482545594619147,-3,1,42,-5,5,2,8,2
1482545594619147,1,8,-3,3,3,2,-13,-5
1482545594626688,-6,-2,0,9,-3,-2,9,-1
1482545594626688,5,1,-2,4,-2,0,-13,-11
1482545594642965,1,-4,-14,5,2,-1,14,8
1482545594642965,0,2,19,-13,4,10,4,-2
1482545594643936,-6,-2,2,-5,-2,-4,-10,-8
1482545594643936,3,2,9,6,4,-2,-4,2
1482545594665981,2,-9,-25,-14,-3,-3,3,4
1482545594665981,1,-2,9,30,5,0,-8,-7
1482545594670983,-8,0,-5,-13,-1,2,-2,-1
1482545594670983,3,-5,7,-21,0,-2,-5,3
1482545594678993,-5,5,-26,17,-12,-8,7,1
1482545594678993,1,-1,-28,24,3,3,-2,-1
1482545594685994,-8,-3,-4,-32,2,1,4,1
1482545594685994,3,3,-2,18,3,0,-3,-6
1482545594703008,-2,3,0,-41,-4,-2,0,2
1482545594703008,-1,2,2,1,-4,-5,-9,-3
1482545594703986,1,-4,-44,-6,1,0,-23,0
1482545594703986,10,1,29,-13,5,8,54,22
1482545594725009,-12,5,13,12,-1,1,-2,-2
1482545594725009,4,-6,-3,35,-7,-6,1,22
1482545594727007,-2,-7,17,-9,1,1,11,7
1482545594727007,-14,-5,-5,9,-4,-5,-32,-51
1482545594739590,-2,-2,-10,-20,-4,-8,-12,11
1482545594739590,0,3,-13,-2,-1,1,2,-6
1482545594746201,2,-5,3,21,5,6,8,16
1482545594746201,-2,7,3,-12,-4,-3,3,0
1482545594762310,8,-1,-1,15,-3,3,20,20
1482545594762310,-7,-7,9,-19,7,-7,-17,-8
1482545594764284,-5,2,-3,26,10,1,-3,-9
1482545594764284,1,-1,-20,-25,-3,3,-5,1
1482545594786302,2,8,30,6,-2,0,3,-7
1482545594786302,0,-10,-25,-12,-9,0,2,-2
1482545594788281,3,0,24,4,-4,-6,-3,-11
1482545594788281,-8,1,29,21,-1,-4,-7,5
1482545594799287,10,-5,-16,-6,2,0,1,2
1482545594799287,-6,3,0,-6,0,0,-21,3
1482545594806313,4,5,-4,0,-4,-1,7,-20
1482545594806313,-2,2,9,7,2,1,31,8
1482545594822325,16,0,4,5,-1,-1,-23,15
1482545594822325,7,2,7,-9,-2,-2,10,-10
1482545594824299,-22,-10,-27,-8,0,7,-51,29
1482545594824299,26,19,21,4,-9,-4,55,38
1482545594845572,-10,-9,-20,-2,2,-1,-20,4
1482545594845572,4,4,3,1,4,1,18,18
1482545594846572,-5,-3,7,-1,-6,-6,-24,-22
1482545594846572,-4,-5,-7,-3,3,3,-20,2
1482545594859605,-8,-2,-2,1,-2,0,25,-2
1482545594859605,1,-7,-4,-11,-6,-3,-13,-18
1482545594866587,0,-7,3,2,0,1,20,10
1482545594866587,-4,4,19,-9,0,-1,-35,-20
1482545594882600,-2,-12,-39,6,1,0,16,6
1482545594882600,-6,9,45,-9,-7,-8,-24,-14
1482545594884576,2,2,-45,7,-1,-3,14,-1
1482545594884576,-4,-8,-44,-21,-2,3,4,3
1482545594904641,1,7,21,3,2,5,-19,-17
1482545594904641,-1,-1,1,-3,4,0,15,6
1482545594906601,0,-2,6,-6,-9,-1,10,-3
1482545594906601,1,1,9,9,-4,-8,-38,-15
1482545594919608,-7,-5,6,13,19,13,42,11
1482545594919608,-6,1,-19,-1,8,2,-10,-9
1482545594926631,3,3,21,-4,-4,-2,-1,-4
1482545594926631,-2,-5,-7,-4,-5,-8,-26,2
1482545594942667,-2,-2,-13,-2,-5,-2,33,7
1482545594942667,-3,-4,9,20,2,4,2,-4
1482545594943767,-2,-2,-21,-18,0,2,5,-2
1482545594943767,0,1,-9,-1,-2,1,-29,-8
1482545594964790,-4,-8,-9,-4,-3,-7,-1,-5
1482545594964790,-2,3,8,4,-7,-1,15,-2
1482545594966792,5,1,4,12,-4,-6,-15,17
1482545594966792,-17,-7,2,-10,5,6,-1,-16
1482545594978814,4,4,10,-9,-6,-8,-8,-7
1482545594978814,0,-6,-24,-15,-1,1,-14,-6
1482545594987812,-1,0,-1,12,0,1,11,-1
1482545594987812,-2,-5,8,-33,-3,-3,0,-1
1482545595002823,-1,4,2,-4,-3,2,-17,-8
1482545595002823,-3,0,-1,2,-1,-3,-10,-3
1482545595003823,-2,-3,3,-1,-5,-6,-2,-5
1482545595003823,2,1,-1,16,2,0,6,3
1482545595024819,-2,1,6,5,-1,0,-7,-7
1482545595024819,2,-6,-7,-13,-2,-2,-6,8
1482545595026823,-1,3,11,-2,6,3,25,1
1482545595026823,2,1,21,6,-11,-8,-1,-7
1482545595038857,-2,-4,-23,-5,-5,-4,-16,2
1482545595038857,0,-3,16,2,-1,0,7,3
1482545595047969,-1,4,-16,-6,10,3,-4,-8
1482545595047969,1,0,-6,8,-2,1,0,4
1482545595062980,0,4,31,2,0,0,-1,-4
1482545595062980,-2,-5,-8,-13,-12,-4,1,0
1482545595063967,-3,-3,-2,-2,-4,-3,-2,-3
1482545595063967,2,7,7,9,9,3,-1,7
1482545595085036,9,-9,-10,-3,0,3,12,2
1482545595085036,-20,5,1,-4,-7,-8,-8,-10
1482545595087011,-2,-2,2,-11,-5,-5,-2,4
1482545595087011,1,-3,-11,10,5,5,1,-3
1482545595099109,-3,7,8,-5,1,-2,-18,-11
1482545595099109,11,-3,10,9,2,5,10,6
1482545595108115,2,0,-25,-14,-2,-3,-1,2
1482545595108115,0,-6,9,1,-5,-4,7,-1
1482545595122300,-7,0,-7,-1,-1,-1,-5,-4
1482545595122300,4,0,4,3,4,4,1,-12
1482545595124273,-1,1,2,4,-2,-1,2,6
1482545595124273,0,-13,-25,-3,-1,0,5,15
1482545595144935,0,4,11,-2,-2,-2,-7,-11
1482545595144935,-4,-1,-4,7,-1,-3,2,4
1482545595146926,-4,-5,-1,-12,-3,-6,-7,-6
1482545595146926,-3,2,-5,2,-6,-1,0,0
1482545595158949,-3,3,-1,-1,-1,0,2,1
1482545595158949,-1,-5,-10,16,5,3,-1,0
1482545595168087,0,-3,2,3,2,5,3,0
1482545595168087,-1,2,7,-8,11,4,1,-8
1482545595183096,-2,2,4,1,-6,-6,-9,0
1482545595183096,3,1,-18,-38,-12,-1,-2,4
1482545595184065,1,-7,10,16,2,-3,-5,-8
1482545595184065,-1,4,-18,0,-4,-5,2,5
1482545595205136,-1,-4,-6,2,5,0,-1,-2
1482545595205136,1,0,2,4,3,2,5,6
1482545595207081,-2,2,8,-7,-7,-1,0,1
1482545595207081,-3,-2,12,3,-3,-2,-6,-14
1482545595219094,-3,-5,0,-4,-2,0,1,3
1482545595219094,0,-3,-24,2,0,-4,1,3
1482545595228130,0,-1,7,-1,-5,0,-23,-11
1482545595228130,2,0,-9,-5,0,-1,37,12
1482545595242641,-4,1,11,6,4,3,-7,-4
1482545595242641,-1,-2,4,5,-6,-8,1,4
1482545595244188,-2,-2,9,-27,-3,1,-5,-2
1482545595244188,0,-5,3,1,-1,-2,-12,0
1482545595265216,-5,-1,-12,6,21,4,8,5
1482545595265216,2,1,5,8,-6,0,1,-1
1482545595267211,-3,2,1,-1,-7,0,8,-3
1482545595267211,3,1,21,1,-9,0,2,10
1482545595278223,-4,-8,-20,10,12,-4,-11,5
1482545595278223,0,4,17,-3,-1,-5,-17,-31
1482545595287215,2,10,-1,18,2,-2,4,6
1482545595287215,-2,-12,3,-9,-6,0,2,-2
1482545595302302,0,0,-6,-8,-10,1,6,3
1482545595302302,-1,-1,-24,14,13,5,1,6
1482545595304301,1,1,13,-4,-6,-3,1,-5
1482545595304301,2,6,-1,28,-4,-3,-4,-1
1482545595325320,0,-12,-9,-52,5,4,0,-1
1482545595325320,-2,-1,33,7,6,1,-1,3
1482545595326317,1,-9,-38,-23,-20,0,12,-4
1482545595326317,-2,4,-35,1,29,1,-17,-2
1482545595338851,7,5,7,29,2,7,10,9
1482545595338851,-5,-2,-18,-30,-13,-9,-11,-12
1482545595347558,2,1,-7,10,-1,-5,-5,3
1482545595347558,-3,-2,5,5,-13,-4,-1,-6
1482545595362569,-4,-2,19,-55,-23,-7,0,-23
1482545595362569,3,-1,-4,32,25,5,6,21
1482545595364570,-10,-2,-1,-18,-18,-6,-9,1
1482545595364570,3,-1,19,2,2,-1,-8,-4
1482545595384555,1,6,7,17,9,2,5,-3
1482545595384555,-1,-3,-4,-4,-11,5,10,13
1482545595392580,-1,0,7,6,4,-4,-5,-9
1482545595392580,1,-5,15,1,4,2,-1,4
1482545595407584,-2,-6,-43,17,-2,1,-6,-4
1482545595407584,4,1,24,-38,-9,-2,-4,-4
1482545595408585,1,3,-12,36,27,10,9,3
1482545595408585,-3,0,3,-16,-8,-4,3,2
1482545595422583,-5,2,20,-40,-26,-15,-11,4
1482545595422583,1,-3,-53,39,30,15,2,5
1482545595423584,-6,-9,-15,-38,-28,-15,-8,-8
1482545595423584,-4,5,-16,18,1,3,2,-24
1482545595445105,4,3,-16,2,0,-5,-4,18
1482545595445105,-3,-13,12,-11,-5,3,3,-13
1482545595446105,0,1,6,-48,-4,4,4,22
1482545595446105,-9,-9,-17,32,22,-8,-20,-6
1482545595467119,3,2,26,36,-9,-4,3,15
1482545595467119,1,0,15,-14,-13,-1,0,-11
1482545595469121,4,-2,4,22,16,7,13,-2
1482545595469121,-2,-5,-7,-38,-11,-1,1,3
1482545595482130,2,1,0,4,9,0,0,9
1482545595482130,-4,5,-14,4,-9,-10,-9,1
1482545595484132,2,0,-4,40,0,9,7,-8
1482545595484132,-1,3,2,-34,3,0,-8,11
1482545595505159,-3,-1,41,10,1,0,4,-9
1482545595505159,-1,3,48,2,-12,-6,2,-1
1482545595506160,-4,-5,-70,-26,11,3,2,3
1482545595506160,-3,-9,8,26,-8,-6,-3,-18
1482545595527174,2,6,14,4,29,11,5,1
1482545595527174,-3,-5,-53,-43,-18,-8,-7,-1
1482545595529179,1,5,104,40,7,1,-3,9
1482545595529179,5,0,-1,3,-17,9,27,2
1482545595542215,-2,-1,-44,9,4,0,-4,4
1482545595542215,-5,-8,-9,-49,-24,-9,-5,-13
1482545595548722,-6,-6,-31,-33,-9,-6,-2,25
1482545595548722,3,7,-29,10,4,-3,-12,-17
1482545595564758,-4,0,39,19,-24,-9,-3,-30
1482545595564758,5,-2,1,64,32,18,19,6
1482545595566757,1,1,4,-7,7,-2,-4,-2
1482545595566757,-9,-5,12,-16,-10,-9,-9,-10
1482545595587774,5,-3,16,15,7,2,10,4
1482545595587774,-9,2,9,34,6,-4,-5,1
1482545595588776,8,5,39,3,15,7,-4,-27
1482545595588776,5,1,-57,-25,-5,1,11,21
1482545595600800,0,-5,8,-5,0,-4,-9,-9
1482545595600800,3,7,-49,20,29,8,2,4
1482545595609788,-16,2,3,0,-29,-15,-5,6
1482545595609788,5,2,31,19,-17,-2,-5,3
1482545595624799,-21,-20,-21,-68,-5,4,-7,-23
1482545595624799,11,17,40,28,-12,-4,-3,31
1482545595626829,-9,-16,-61,-23,3,-9,-5,-9
1482545595626829,-2,9,12,-9,-2,6,-1,9
1482545595647969,1,-3,-30,18,-26,-10,26,1
1482545595647969,0,3,8,-50,1,10,-8,3
1482545595648987,-5,-5,-5,5,10,-1,-12,-27
1482545595648987,10,3,35,26,15,0,-5,5
1482545595660996,4,0,-40,-16,3,6,8,21
1482545595660996,1,-2,-4,14,-10,-3,2,-32
1482545595669984,5,6,-12,-29,-1,-2,-26,25
1482545595669984,-2,-12,-48,-49,-1,-6,46,15
1482545595685011,1,11,56,-44,-32,-7,-27,-35
1482545595685011,-2,-6,-99,42,64,12,13,27
1482545595687013,-3,-1,68,35,-48,-13,-12,-18
1482545595687013,-7,-2,12,-27,30,16,0,-32
1482545595707120,1,8,21,4,-28,-14,-8,30
1482545595707120,3,-7,33,-9,3,0,-24,-8
1482545595709068,1,-1,-5,5,21,12,59,-3
1482545595709068,-7,6,34,38,0,-5,-26,22
1482545595721095,-4,-9,7,38,-3,-1,-3,-8
1482545595721095,6,5,30,-11,-13,-4,-1,-21
1482545595730602,3,-7,-33,40,-20,-5,-41,-13
1482545595730602,4,2,-34,-92,-18,4,71,70
1482545595745211,-22,-3,-21,26,34,-2,-42,-62
1482545595745211,-3,-1,7,-9,-20,-10,4,13
1482545595746214,17,12,-12,4,11,16,-16,-33
1482545595746214,1,-3,5,19,0,-4,30,43
1482545595767230,-2,0,-25,-2,-15,-9,-25,-31
1482545595767230,0,-2,33,25,4,6,5,-17
1482545595769226,-17,-9,84,-20,-61,-25,5,20
1482545595769226,4,4,-40,83,61,19,-38,-42
1482545595781238,7,2,-24,16,32,12,27,15
1482545595781238,0,4,42,39,-13,1,11,-2
1482545595790243,-8,-2,-31,-16,8,-9,-16,2
1482545595790243,2,0,51,17,-26,-14,-29,-36
1482545595812259,5,1,-42,-101,-39,-9,0,78
1482545595812259,-4,0,20,74,73,12,3,-52
1482545595814260,-5,-7,-45,-3,-29,-7,12,32
1482545595814260,-15,-9,28,11,-13,-11,-28,-87
1482545595827257,6,-1,-28,-3,-7,-4,9,11
1482545595827257,2,0,3,-33,-7,1,-7,21
1482545595829259,7,5,-65,-10,30,9,21,14
1482545595829259,-2,3,6,25,-5,-6,-25,6
1482545595841290,-2,0,24,-4,4,15,14,-20
1482545595841290,-5,-4,-22,-37,-24,-16,16,7
1482545595850366,-4,4,27,15,12,-13,-28,-11
1482545595850366,-2,1,-7,-27,-17,-2,-37,-6
1482545595865407,11,-2,-25,18,-3,3,24,4
1482545595865407,-2,9,-7,7,-16,-9,-10,3
1482545595866377,7,-6,14,49,57,32,24,13
1482545595866377,-3,-9,-1,-58,-7,-1,13,-9
1482545595887419,-8,3,54,21,17,-8,-33,-1
1482545595887419,-1,-5,-85,-55,-39,-31,-25,5
1482545595889421,-4,3,32,-10,21,-3,-77,-27
1482545595889421,6,-2,0,34,-11,30,100,87
1482545595910411,9,7,25,2,28,8,-49,-5
1482545595910411,-20,-11,-2,-17,-13,1,2,23
1482545595911424,2,1,-1,-15,8,-1,72,-2
1482545595911424,4,-8,7,-9,-9,-15,-94,-16
1482545595925433,-1,-3,-14,23,-3,7,88,35
1482545595925433,-10,-1,11,-23,-8,2,-46,-52
1482545595926423,21,20,11,36,1,14,-11,14
1482545595926423,-7,-9,-24,-35,-15,-20,-80,8
1482545595947577,-3,2,9,-29,-27,-12,-18,-32
1482545595947577,1,-8,-6,-3,7,-5,-35,-14
1482545595949561,2,3,16,8,-8,9,36,14
1482545595949561,12,-1,6,38,5,21,107,35
1482545595961569,-1,-4,-10,8,30,-5,-83,32
1482545595961569,-12,6,27,-4,-26,-16,-18,-77
1482545595970605,-4,-7,3,-17,-6,-9,-8,11
1482545595970605,3,-2,23,15,-7,3,7,-16
1482545595984614,3,-12,-45,9,-1,10,49,17
1482545595984614,8,-5,14,1,3,11,27,43
1482545595986615,-5,-2,4,-13,19,0,0,-14
1482545595986615,-2,1,-30,-28,-12,-13,-29,-13
1482545596014622,-4,1,26,-9,-2,-2,10,-10
1482545596014622,2,10,-21,0,16,14,13,20
1482545596016607,-12,-3,-3,2,-46,-23,-33,-31
1482545596016607,4,9,9,-4,37,21,19,6
1482545596020627,-7,2,20,1,-23,-19,-19,-18
1482545596020627,-6,-10,-53,-52,-24,-16,-8,0
1482545596030138,0,-3,-4,11,2,-1,14,12
1482545596030138,-5,4,9,9,-1,-10,-17,-15
1482545596044658,1,5,7,36,3,5,-7,-8
1482545596044658,6,1,10,-9,3,9,28,26
1482545596046958,1,-1,-2,-1,3,5,2,4
1482545596046958,-4,0,-14,3,-9,-9,-2,-6
1482545596066975,1,-5,-12,-20,26,11,-11,-5
1482545596066975,1,-3,21,-2,-4,-3,5,15
1482545596068964,-1,2,-32,-14,-2,2,-4,-4
1482545596068964,-1,0,48,20,2,-2,-5,-10
1482545596080986,1,1,-67,-31,-8,0,18,5
1482545596080986,5,-1,7,13,-2,1,-6,4
1482545596089999,-13,-9,-4,1,3,7,0,-1
1482545596089999,6,2,2,-10,1,-10,1,0
1482545596105002,0,13,40,-1,4,5,5,-1
1482545596105002,-4,-17,14,10,-7,-7,-4,0
1482545596107004,8,9,-15,-11,-6,-4,-7,-4
1482545596107004,-10,-12,-25,15,-6,-4,-4,-6
1482545596127019,2,-11,26,0,-7,0,-2,-3
1482545596127019,4,18,-50,-47,14,7,4,4
1482545596129008,1,-8,19,-10,12,9,-6,6
1482545596129008,-10,0,10,20,-12,-14,11,-3
1482545596141532,1,-1,-2,-11,1,0,1,-2
1482545596141532,-2,-6,27,33,2,2,0,4
1482545596150538,2,-1,-1,9,2,-2,-2,-2
1482545596150538,3,3,-25,-49,3,5,-10,-5
1482545596165051,-1,-3,1,11,-2,-2,-3,-5
1482545596165051,0,5,21,20,-2,1,4,2
1482545596167038,3,-2,-6,2,-3,-1,6,7
1482545596167038,1,5,-12,-21,2,3,-4,-5
1482545596187623,-7,-8,10,48,-7,-3,1,-5
1482545596187623,-2,-7,-33,-2,-4,-2,-2,1
1482545596188624,2,7,14,-31,0,-1,-1,-6
1482545596188624,-1,1,-9,61,3,2,-4,-2
1482545596200632,-2,-2,9,-23,6,-2,3,1
1482545596200632,0,4,14,7,4,5,1,3
1482545596217605,-4,-1,-2,16,-9,-7,-1,0
1482545596217605,0,-7,-61,-38,4,4,-4,-2
1482545596225610,4,12,12,2,5,4,-3,-1
1482545596225610,-5,-16,27,11,-18,-12,-4,-2
1482545596231639,-2,1,11,12,6,2,2,-1
1482545596231639,-1,1,35,17,-2,-3,-4,-3
1482545596247690,1,0,-25,-41,-8,-6,3,-2
1482545596247690,0,-7,7,-16,2,4,1,2
1482545596248628,2,0,-23,3,-4,0,1,-1
1482545596248628,6,-2,-16,-9,0,-1,-3,4
1482545596261269,-12,6,9,1,0,-1,-2,-5
1482545596261269,6,9,4,8,-2,0,1,2
1482545596270224,-4,-1,-2,-18,2,1,0,-2
1482545596270224,-1,-5,13,-21,1,-1,-2,-1
1482545596284405,2,2,13,59,-4,0,-1,3
1482545596284405,-5,-2,-1,-15,-3,-6,-7,-3
1482545596291411,-4,-14,-61,7,-8,-5,0,0
1482545596291411,-7,-13,-49,-15,-1,-4,-5,-9
1482545596307412,2,0,9,-9,-2,2,3,0
1482545596307412,-3,8,-3,16,-3,-1,-1,-2
1482545596309352,3,-8,-15,2,-6,-8,3,7
1482545596309352,0,0,25,-14,12,10,10,7
1482545596321423,0,-5,9,-6,1,-1,-3,-2
1482545596321423,2,0,-3,12,1,1,1,2
1482545596330367,-7,-2,79,-6,1,6,1,-10
1482545596330367,0,9,59,29,-1,-3,-3,-1
1482545596344441,2,-4,-10,1,-1,-2,-3,0
1482545596344441,5,6,-33,-8,11,6,4,3
1482545596351444,2,4,5,-9,5,3,-6,-1
1482545596351444,-3,-1,-8,-24,-13,-4,-2,-4
1482545596367978,-7,-5,1,25,-2,-4,-3,-3
1482545596367978,-1,1,0,-17,0,5,-2,-2
1482545596369467,2,6,14,-10,-2,-11,-2,-1
1482545596369467,-3,-9,-60,-10,-3,1,-1,-3
1482545596390203,1,-10,2,-7,-3,1,0,1
1482545596390203,-5,-16,-23,-29,-6,-4,-3,-3
1482545596392150,-4,-2,-16,-17,-4,-3,-2,-2
1482545596392150,-9,4,-2,15,-4,-6,-2,-5
1482545596404213,1,-4,11,3,-3,-4,-4,1
1482545596404213,1,4,5,14,0,5,0,2
1482545596411218,0,-1,3,-8,0,-1,-7,-3
1482545596411218,1,0,-15,-15,-23,-24,10,1
1482545596435182,2,-3,9,2,32,20,1,2
1482545596435182,-1,3,-5,8,-7,-6,1,0
1482545596436181,-4,3,-21,-4,-5,-9,-18,-6
1482545596436181,1,-7,17,12,4,5,-1,2
1482545596451192,2,18,4,-4,1,0,2,0
1482545596451192,2,-6,-5,-7,0,0,3,2
1482545596453196,-4,-13,-20,-37,-14,-5,2,-1
1482545596453196,2,2,-8,-1,6,0,-6,-2
1482545596464739,-1,5,7,14,-4,-3,-2,-1
1482545596464739,-1,-1,8,-31,-3,-1,-2,-1
1482545596471254,2,4,1,23,2,2,1,2
1482545596471254,0,-2,18,3,3,6,1,0
1482545596487791,-2,-7,-20,-7,-9,-4,1,-2
1482545596487791,2,6,21,-1,0,-5,-1,1
1482545596488788,5,18,50,53,18,10,10,4
1482545596488788,3,4,-19,-51,5,11,17,9
1482545596509828,-5,14,84,73,-13,-16,-4,-4
1482545596509828,-14,-29,-89,-30,1,2,-11,-3
1482545596511780,25,5,22,7,4,3,-2,-4
1482545596511780,-3,-2,21,-16,-3,-7,-16,-4
1482545596524816,-6,5,-26,-14,-18,-14,5,-1
1482545596524816,5,10,30,6,27,32,11,-3
1482545596530844,-8,-2,7,10,-2,0,-1,2
1482545596530844,-4,-2,10,22,-4,-1,-6,-5
1482545596547834,3,-17,-40,-19,-10,-9,-12,-4
1482545596547834,-5,6,23,10,-14,-18,-3,-1
1482545596548808,-4,-7,-3,0,12,0,16,8
1482545596548808,6,3,7,21,6,13,8,2
1482545596570381,-6,-4,-13,-15,2,4,-3,0
1482545596570381,1,1,14,-2,-5,-3,1,1
1482545596571853,-2,1,-7,-7,-13,-7,2,3
1482545596571853,-3,-5,16,16,6,-2,-12,-2
1482545596584656,1,1,-9,-22,3,4,3,0
1482545596584656,0,-3,7,18,-6,-4,0,-2
1482545596591633,-4,-4,-9,-15,-4,0,1,-3
1482545596591633,-4,3,15,15,-4,-7,-5,-4
1482545596607648,4,-6,-15,-6,9,5,-3,-3
1482545596607648,2,-3,26,3,-3,-1,5,-1
1482545596608648,-3,4,-9,20,3,-4,-14,-2
1482545596608648,2,4,-2,13,16,14,10,8
1482545596629661,-4,-5,-5,-32,-11,-7,5,-2
1482545596629661,-2,-12,-17,-2,-10,-12,-3,2
1482545596631662,-7,-13,-16,-20,-12,-10,-3,-11
1482545596631662,2,6,17,11,-2,7,3,0
1482545596643667,-3,-7,-11,16,-5,4,0,0
1482545596643667,-2,6,23,14,0,-5,-6,-2
1482545596652674,-1,-6,-15,-14,-11,-1,2,1
1482545596652674,0,-1,1,-15,-1,-11,-8,-5
1482545596667685,-3,-1,3,-3,3,4,2,0
1482545596667685,2,3,-1,5,-3,-8,-14,-2
1482545596669186,-1,0,10,-12,-2,5,6,3
1482545596669186,-1,0,4,12,6,-1,3,1
1482545596690202,4,5,7,9,14,6,-1,0
1482545596690202,1,7,-1,9,-1,0,1,-2
1482545596691203,-6,-4,13,-8,0,-2,-3,-3
1482545596691203,-4,-5,-35,5,11,4,-4,0
1482545596703211,0,0,4,-25,-12,-3,-2,2
1482545596703211,-1,2,2,10,7,-1,-7,-4
1482545596712218,0,-4,-4,10,0,5,5,-1
1482545596712218,0,0,-5,-9,-13,-7,0,-1
1482545596727228,-4,-4,-1,-6,0,-5,-9,-4
1482545596727228,2,-5,0,-6,-1,0,4,0
1482545596729230,0,6,-5,5,-3,3,0,1
1482545596729230,0,8,24,14,9,3,2,-1
1482545596750245,-1,-14,-22,-5,2,-1,3,0
1482545596750245,1,2,21,9,-8,-3,6,-1
1482545596751250,-1,-3,-34,-53,5,-5,-7,-1
1482545596751250,-3,1,16,0,-6,2,5,-1
1482545596763761,2,5,4,9,2,1,2,0
1482545596763761,-4,2,2,0,-2,-1,1,1
1482545596772767,-2,2,8,17,3,-1,-7,-1
1482545596772767,1,-4,-10,-7,0,1,-6,-3
1482545596787065,1,2,-9,-8,-9,-10,-5,-2
1482545596787065,-1,1,-9,-5,-1,0,-5,0
1482545596789065,4,-8,3,12,1,-2,1,-3
1482545596789065,-1,0,-3,-6,0,1,2,1
1482545596810081,-7,-2,-2,6,-1,1,3,-1
1482545596810081,1,2,1,-6,1,-1,-1,0
1482545596811083,0,-2,5,5,-4,-3,0,-1
1482545596811083,6,-1,-1,-7,-9,-8,-3,-4
1482545596823104,10,-2,-1,1,2,-1,-2,3
1482545596823104,-21,3,1,-1,2,2,0,-3
1482545596832111,-8,-5,-9,0,2,3,-3,-2
1482545596832111,0,0,11,9,-5,-7,-2,-1
1482545596847106,-2,-2,-23,0,2,2,1,-1
1482545596847106,4,5,-3,-4,-2,0,1,-1
1482545596849107,7,1,0,-2,2,2,1,2
1482545596849107,-5,-4,1,1,-7,-6,-4,-1
1482545596871636,1,10,13,1,2,1,-1,0
1482545596871636,-13,-8,4,-6,-1,0,1,1
1482545596873126,15,11,8,7,2,1,-1,-5
1482545596873126,7,-27,-24,-7,-1,-3,-1,2
1482545596883135,2,-9,-25,-11,-5,-3,-4,-7
1482545596883135,-11,-1,-2,17,1,-2,1,-3
1482545596892158,22,4,22,11,-1,-3,-1,0
1482545596892158,-27,7,-7,-10,-5,-1,-2,-1
1482545596907168,5,18,7,10,6,1,1,0
1482545596907168,-6,-34,-4,-13,-1,2,0,0
1482545596909155,-20,0,-8,-2,-5,-3,-3,-5
1482545596909155,28,10,10,5,4,-3,-3,-1
1482545596930178,-12,0,17,6,-16,-2,0,2
1482545596930178,36,6,-17,-33,6,0,-1,-2
1482545596931180,-24,-4,10,17,-7,-1,2,1
1482545596931180,2,10,-3,4,0,1,-1,-2
1482545596944181,10,-13,1,-14,1,0,0,0
1482545596944181,5,4,1,-24,-9,-5,-1,0
1482545596952201,2,-4,-38,-19,-2,-3,0,2
1482545596952201,-6,1,17,11,1,0,0,-1
1482545596967713,0,-3,20,-19,5,-1,-1,-1
1482545596967713,-3,-4,3,3,16,8,4,3
1482545596969215,-10,3,45,3,2,3,-1,-2
1482545596969215,2,-13,-77,-6,-8,-2,-1,0
1482545596989870,-4,4,21,16,1,-2,-3,-4
1482545596989870,-5,7,19,4,1,3,-2,-1
1482545596991856,5,1,7,0,3,-5,2,2
1482545596991856,-1,3,13,-13,-1,-2,-1,-2
1482545597003880,-5,-2,6,8,0,2,-1,0
1482545597003880,-2,1,-8,-7,-1,0,-1,-1
1482545597012880,2,2,-4,18,-1,1,-1,1
1482545597012880,-5,-4,8,-6,-8,-6,3,1
1482545597027891,-9,-7,-21,-4,1,1,-10,-6
1482545597027891,-1,5,11,11,1,-3,-1,-1
1482545597028902,0,-4,-17,-6,-3,0,-2,-1
1482545597028902,-5,-1,16,0,1,-2,1,-1
1482545597049902,1,2,-9,2,-3,9,2,0
1482545597049902,8,5,-9,-1,-6,-13,0,1
1482545597051907,2,-1,1,-4,8,6,-3,-2
1482545597051907,-5,-4,4,6,0,-1,-5,-8
1482545597064021,-1,6,-5,0,-1,-2,5,-2
1482545597064021,0,-1,-1,6,-6,2,-1,-2
1482545597072988,-3,-6,-21,-4,-4,-3,0,-1
1482545597072988,-1,-2,22,-4,-1,-1,-4,0
1482545597087102,3,-1,15,1,2,-2,1,2
1482545597087102,-7,-13,-51,-4,-7,-8,-2,-2
1482545597089091,-5,-1,13,6,0,-3,-4,-3
1482545597089091,0,-4,-2,-7,-1,1,2,1
1482545597110118,-1,3,4,6,-1,-2,0,-1
1482545597110118,3,6,1,7,6,9,2,2
1482545597112105,-2,-1,-4,-17,-8,-9,0,-2
1482545597112105,1,3,-8,7,4,3,0,0
1482545597124124,-2,-7,-7,-4,-2,-3,0,0
1482545597124124,-3,2,19,6,-3,-1,-3,0
1482545597133117,0,-12,-25,-4,-4,0,-13,-7
1482545597133117,3,4,9,-1,-1,-3,17,9
1482545597147181,2,-2,-8,-4,2,0,-9,-4
1482545597147181,-2,6,2,-1,-4,-1,4,0
1482545597153159,-3,2,8,4,3,3,4,-3
1482545597153159,-5,-5,-1,-1,5,3,-6,-5
1482545597170177,-2,-3,-9,-4,-3,-2,-2,0
1482545597170177,-1,-2,5,4,-4,-3,6,-1
1482545597171678,-1,-1,-1,-2,-3,-2,-13,-2
1482545597171678,-2,-4,4,-3,-4,-3,-5,-4
1482545597183662,-1,-2,-14,2,1,0,4,0
1482545597183662,-2,1,17,-16,-7,-2,-7,-6
1482545597192696,4,6,-22,9,3,1,8,6
1482545597192696,-6,-8,-8,-25,1,-3,-9,-7
1482545597206737,-3,-7,26,35,-2,-2,1,3
1482545597206737,1,0,3,1,4,4,0,1
1482545597213741,1,2,-8,45,-2,-8,-4,-2
1482545597213741,2,7,-7,-77,-2,7,11,7
1482545597229710,-9,0,16,44,-7,-6,-12,2
1482545597229710,3,-3,-6,-29,-1,-1,5,-4
1482545597231708,15,-5,16,2,5,3,2,9
1482545597231708,-11,-7,-31,16,-2,-5,-43,-9
1482545597243703,-8,-14,-14,-33,-2,0,64,24
1482545597243703,-7,0,3,8,-1,-4,-5,24
1482545597252709,-1,3,-5,-6,4,4,0,-4
1482545597252709,3,2,9,4,-4,-3,-6,-4
1482545597267223,5,-2,-9,-16,-1,0,-16,-7
1482545597267223,-4,1,-5,18,-2,-1,-8,-5
1482545597273729,-4,-11,3,-20,-2,-4,19,11
1482545597273729,-9,-11,2,17,0,-6,2,4
1482545597290278,3,25,0,-4,4,8,-1,5
1482545597290278,9,-2,6,2,-3,-2,13,-3
1482545597291278,-2,-5,4,0,0,6,-5,3
1482545597291278,1,1,12,6,-3,0,1,-10
1482545597312293,-2,-22,-24,-22,2,5,-24,9
1482545597312293,9,-5,24,16,4,2,36,25
1482545597314295,-8,14,-26,-16,-7,-10,29,-5
1482545597314295,4,7,12,16,-6,0,-3,2
1482545597326317,0,-2,0,-10,3,-1,-1,-8
1482545597326317,4,-8,6,17,1,3,-43,-20
1482545597333323,-7,-1,19,-9,0,2,7,5
1482545597333323,7,8,-20,17,5,1,-16,-18
1482545597350321,-17,-31,-58,-25,-12,-5,47,-1
1482545597350321,2,6,-6,-4,0,-1,-45,-5
1482545597351322,1,-9,1,9,3,9,15,-6
1482545597351322,-3,15,-3,-4,-1,-8,8,10
1482545597372864,9,9,15,2,1,-2,-50,-47
1482545597372864,-12,-6,-20,-7,-5,-7,22,15
1482545597374365,-4,-1,1,-1,0,4,-15,-3
1482545597374365,2,-1,11,20,-1,8,30,21
1482545597386810,-2,2,4,-4,1,-5,-19,-13
1482545597386810,-13,0,-7,-13,-16,-9,16,-2
1482545597393816,3,7,10,-18,3,-1,-42,-12
1482545597393816,-2,-4,4,7,0,-1,-38,-13
1482545597409828,12,8,18,8,1,-3,44,8
1482545597409828,-16,6,-7,-1,1,-2,-4,-27
1482545597411829,7,-2,-6,0,-5,-4,-21,-15
1482545597411829,-9,-25,29,-10,-8,-8,20,15
1482545597431842,-5,12,-10,7,1,6,-5,-6
1482545597431842,20,-2,9,7,9,7,53,-2
1482545597438848,1,22,7,-13,-2,-4,-31,38
1482545597438848,-10,-25,-69,-1,-2,-3,5,-31
1482545597446908,1,16,44,-5,-8,-9,-39,-20
1482545597446908,8,0,-14,-43,0,1,1,0
1482545597453914,-16,-13,4,28,0,-4,18,-9
1482545597453914,6,30,4,-3,-5,2,4,14
1482545597470479,-3,-10,-8,10,-3,-7,-16,-3
1482545597470479,-3,-9,-18,17,10,5,9,40
1482545597471978,6,-1,4,-25,-5,3,34,12
1482545597471978,5,-3,7,-3,2,0,14,11
1482545597492612,-1,1,-2,14,-3,2,16,18
1482545597492612,-8,4,10,-12,-8,-7,-36,-20
1482545597493613,7,-19,-3,5,2,2,-1,-11
1482545597493613,1,-5,10,5,4,4,13,4
1482545597506622,-5,2,-10,-11,2,-4,-16,11
1482545597506622,-5,-3,-1,10,2,1,-21,-33
1482545597513711,-5,-5,-4,-2,-8,-4,28,27
1482545597513711,-1,6,-5,-11,0,-1,4,-4
1482545597529715,3,0,7,4,6,3,-3,2
1482545597529715,4,-2,-3,-1,-1,-1,-21,-4
1482545597531702,-7,-5,0,9,-3,-6,0,-17
1482545597531702,-8,-1,-1,-20,1,-3,-10,0
1482545597552775,1,-2,-1,8,5,-4,-10,-2
1482545597552775,-3,3,15,8,2,6,19,0
1482545597553741,4,6,-17,2,1,-3,-7,-3
1482545597553741,-1,14,9,1,-5,0,-6,2
1482545597566353,3,-6,-17,-12,-3,-1,5,3
1482545597566353,2,2,-11,-3,-8,-8,-25,-6
1482545597575401,-1,1,7,5,4,6,17,-3
1482545597575401,4,-6,4,9,3,-4,8,3
1482545597589642,2,-3,-2,-3,-8,2,11,14
1482545597589642,-3,-4,7,2,8,1,-54,-53
1482545597591645,-4,7,-4,-4,1,2,5,-4
1482545597591645,6,-3,3,-2,-3,2,2,-3
1482545597612720,0,-1,0,8,-1,-2,11,0
1482545597612720,-7,-6,-18,-14,-12,-10,-29,-8
1482545597613699,-6,-2,6,-9,0,-1,-16,-6
1482545597613699,-5,3,5,12,8,4,-4,-16
1482545597627724,3,5,10,8,-2,3,5,-5
1482545597627724,11,-3,11,-14,-4,3,25,27
1482545597635676,-13,10,-6,-1,0,-4,-8,-17
1482545597635676,13,-1,28,5,-4,-4,-10,3
1482545597649740,-14,-5,-26,-6,6,2,-7,-1
1482545597649740,0,4,-18,5,-1,-1,22,16
1482545597651688,6,-3,3,2,-2,0,7,5
1482545597651688,-9,-3,-4,-5,3,-2,-30,-15
1482545597672762,1,3,14,-6,-4,-3,11,2
1482545597672762,1,-1,3,13,6,1,10,8
1482545597674263,0,-6,3,1,0,-2,-23,-10
1482545597674263,-2,2,-10,8,-5,0,14,7
1482545597686002,2,-6,7,5,1,1,22,14
1482545597686002,-8,-6,-9,-31,-7,-7,6,6
1482545597694985,-5,-1,7,7,-2,-3,-5,-5
1482545597694985,0,-4,2,41,-3,-4,5,-3
1482545597709965,-1,1,-1,-42,2,4,1,-22
1482545597709965,-2,3,-2,29,9,7,7,-2
1482545597711973,4,-2,1,-11,-3,-2,-4,9
1482545597711973,0,-6,5,-3,-5,-3,11,-3
1482545597732981,-1,5,-26,-51,-2,-10,-24,-7
1482545597732981,-16,-33,-53,71,-24,-17,-8,-2
1482545597733982,-3,-18,-27,-62,7,4,3,-1
1482545597733982,6,3,10,13,4,2,-10,3
1482545597746009,-3,0,23,11,5,3,-32,-15
1482545597746009,-1,6,-4,-40,8,10,22,-2
1482545597754996,19,8,6,32,-10,-4,0,1
1482545597754996,-7,-7,-4,-12,-6,-2,-9,-8
1482545597770017,4,3,-4,-1,2,4,21,3
1482545597770017,-6,18,22,1,-1,-7,-72,-23
1482545597772018,-7,-7,2,9,-4,2,79,52
1482545597772018,-2,1,-3,-22,4,5,4,18
1482545597792533,3,-8,-2,17,-3,9,9,18
1482545597792533,3,9,20,9,3,-16,16,11
1482545597794534,1,8,1,7,0,5,11,29
1482545597794534,-15,-9,-25,-8,1,5,58,12
1482545597806544,0,-3,-1,-16,-7,-7,63,19
1482545597806544,4,-3,3,-6,0,5,-11,-4
1482545597814548,-6,-1,-1,5,2,-3,-26,-20
1482545597814548,3,-1,4,-5,-2,-2,-2,2
1482545597829558,-3,-8,6,7,-5,-6,-34,-8
1482545597829558,1,1,2,-20,-2,4,-1,4
1482545597831560,5,6,7,-2,-7,-9,-4,-10
1482545597831560,0,2,-10,13,7,3,-79,-30
1482545597852575,-5,-2,-3,22,1,2,-8,-4
1482545597852575,4,-4,-7,-39,-3,1,56,52
1482545597853576,-5,-1,9,6,-5,-5,-21,-21
1482545597853576,19,-2,5,-14,-4,-7,-7,-6
1482545597866089,-2,15,2,7,2,-2,-17,-1
1482545597866089,-5,-9,8,7,0,3,11,-2
1482545597875096,5,-4,-2,5,1,-3,-21,-21
1482545597875096,1,4,3,-5,-1,0,35,12
1482545597890152,0,-7,-6,0,1,-2,-15,-10
1482545597890152,3,4,23,16,0,4,4,-9
1482545597891653,-7,-7,-13,-17,1,-2,27,7
1482545597891653,-3,1,-8,5,3,2,-14,-2
1482545597912667,-1,5,14,10,-1,-5,-2,5
1482545597912667,0,12,-10,0,3,5,-1,-7
1482545597914168,0,-15,-8,15,5,2,-17,-5
1482545597914168,-18,-17,-21,-29,-18,-12,-4,-6
1482545597926177,3,6,4,1,2,2,5,2
1482545597926177,0,-1,-3,2,-8,-14,1,-3
1482545597935183,2,7,26,13,16,5,-10,-8
1482545597935183,3,5,5,35,6,6,11,8
1482545597950218,-5,-7,0,-22,-9,-4,-9,-13
1482545597950218,-5,-4,-3,-12,-6,-6,-14,-13
1482545597952216,-2,-2,-6,-1,-9,-4,-3,7
1482545597952216,-2,2,2,-3,3,-6,6,1
1482545597972233,1,5,9,14,5,11,17,3
1482545597972233,7,-1,5,-1,1,3,5,19
1482545597974232,-3,-6,-5,-10,-4,2,34,16
1482545597974232,1,1,3,-4,-6,-1,-13,-4
1482545597986303,-1,-6,-2,-1,-5,-7,-7,-1
1482545597986303,-2,-1,-7,-2,4,-2,-17,-10
1482545597995247,-5,1,-5,3,-1,0,-2,-4
1482545597995247,-1,-1,0,-2,-6,-2,-35,-16
1482545598010317,-6,14,-10,-12,7,4,12,11
1482545598010317,10,-15,11,7,6,-2,-6,-16
1482545598011279,-4,5,-20,5,-14,0,-15,-9
1482545598011279,1,-4,2,-1,4,-3,3,-3
1482545598032777,-5,-5,-5,-6,-4,-4,-3,6
1482545598032777,1,4,19,16,1,6,-3,-1
1482545598034278,2,0,-1,-6,1,-7,-18,1
1482545598034278,-7,-6,-46,-28,-12,-3,14,-2
1482545598046352,7,1,-7,18,-2,-4,-24,10
1482545598046352,-3,1,8,0,0,-5,3,-3
1482545598055017,-3,4,12,-6,-4,4,-7,-9
1482545598055017,-1,0,2,-13,17,6,8,9
1482545598070081,4,5,3,11,3,8,19,4
1482545598070081,-6,2,-6,-21,-11,-5,-26,-5
1482545598072018,14,1,-11,-4,-3,-6,-18,-9
1482545598072018,-8,11,11,7,-4,-5,6,3
1482545598092097,-22,-9,-6,-10,-1,-7,-55,-38
1482545598092097,20,0,2,12,2,6,75,31
1482545598094033,-21,-10,-2,-8,-5,-5,-12,-20
1482545598094033,16,1,-2,-2,3,0,4,2
1482545598106107,-3,-8,-7,-17,-2,-3,-34,-11
1482545598106107,-22,-8,-26,-23,-5,0,45,3
1482545598115128,10,8,29,28,3,0,0,-4
1482545598115128,-2,-2,11,1,9,11,-21,-14
1482545598130138,14,13,23,41,3,2,53,46
1482545598130138,-1,0,-32,-94,1,8,-31,-26
1482545598131138,-10,-17,29,79,-23,-16,39,21
1482545598131138,-5,-4,5,15,5,-4,14,-5
1482545598152191,-1,-10,11,21,-8,-7,-2,-10
1482545598152191,2,7,22,19,9,1,-13,-8
1482545598154167,1,3,-22,-34,23,26,2,7
1482545598154167,2,7,6,-18,-12,-9,-14,6
1482545598166200,3,-5,1,3,3,1,16,-4
1482545598166200,-3,-5,-8,-4,-7,-3,34,-9
1482545598175182,-1,5,0,-9,3,-3,-111,-50
1482545598175182,0,2,-7,-14,-9,-4,44,38
1482545598189255,-1,-3,-15,-34,-1,1,25,3
1482545598189255,-9,-1,30,69,-8,-7,-22,-11
1482545598196201,1,1,-30,-15,2,-3,-9,-7
1482545598196201,2,-3,-13,20,3,4,-1,-16
1482545598212208,-2,0,-7,-80,6,-2,-63,-18
1482545598212208,5,1,-4,52,-4,3,70,66
1482545598214210,-19,0,5,1,-1,-9,10,15
1482545598214210,1,1,21,14,-4,-6,-49,-56
1482545598226236,7,-2,-14,-5,-5,5,25,21
1482545598226236,-1,7,-5,-3,11,1,-30,-15
1482545598235258,-4,-2,3,-21,-5,-2,12,-7
1482545598235258,-4,5,-25,22,3,6,3,9
1482545598249883,6,-1,29,-25,-9,-5,-13,-17
1482545598249883,-7,-5,-15,37,2,-5,-11,-10
1482545598251884,-1,-1,-2,-23,-17,-6,1,6
1482545598251884,-7,1,-1,-5,2,-3,-5,8
1482545598272882,-6,1,6,12,-4,-3,16,-6
1482545598272882,-2,-16,-20,-21,5,6,-19,1
1482545598273896,3,10,-10,2,9,4,-11,-8
1482545598273896,7,-3,14,3,3,7,45,33
1482545598294915,-2,7,-1,23,-10,-8,-10,-11
1482545598294915,-3,-1,8,7,-8,-9,26,4
1482545598296900,-4,-6,-4,-71,1,1,16,-20
1482545598296900,6,-3,-9,41,-20,-9,-12,3
1482545598309926,-7,-10,-20,15,0,-4,-44,-15
1482545598309926,-2,8,3,-10,1,-2,-25,12
1482545598311927,5,2,-4,4,7,7,29,7
1482545598311927,-3,7,10,-7,-2,-2,-2,-1
1482545598332927,-3,-9,-15,-16,2,-1,-44,-10
1482545598332927,7,9,4,25,2,8,22,12
1482545598334430,-6,6,13,7,-7,-6,-1,-7
1482545598334430,8,-11,-24,-18,12,4,-3,-6
1482545598355053,-7,7,37,8,-17,-2,0,-5
1482545598355053,-18,-11,-43,-51,-4,-6,-7,-10
1482545598357052,11,2,-23,0,15,9,15,16
1482545598357052,-10,-5,19,16,-2,2,-20,-6
1482545598370074,4,4,-7,-1,-13,-7,49,10
1482545598370074,17,2,13,-41,3,-3,-26,-17
1482545598376068,-1,-1,7,50,-1,-2,3,3
1482545598376068,-3,11,1,-11,10,5,-14,-4
1482545598392077,7,-18,-14,-16,-1,1,70,32
1482545598392077,-9,-4,-36,-20,-20,-11,-20,-13
1482545598394078,3,-2,4,12,10,2,-10,0
1482545598394078,-2,5,7,-23,5,5,22,9
1482545598415092,-5,-4,-20,17,6,0,-6,-3
1482545598415092,2,4,19,36,1,3,-2,-1
1482545598416093,4,-5,17,-52,-1,4,15,9
1482545598416093,-1,-5,-17,-28,-12,-11,-7,0
1482545598428101,-8,-4,-8,58,1,-3,-13,-18
1482545598428101,6,7,7,3,5,0,-14,-6
1482545598437610,0,9,-10,15,3,3,-5,3
1482545598437610,6,-2,16,-23,-4,-2,-1,-7
1482545598452622,-9,-2,5,44,2,3,-3,-1
1482545598452622,-5,-5,4,-42,-14,-14,11,4
1482545598453623,7,6,-4,-35,8,6,6,3
1482545598453623,-13,-6,-28,30,3,5,5,3
1482545598482643,-12,-9,-3,59,-14,-11,-8,1
1482545598482643,7,8,2,-73,5,5,-6,3
1482545598483644,-13,-14,-50,7,-22,-17,5,-28
1482545598483644,5,3,7,38,-8,-13,-5,12
1482545598489648,-5,6,-7,-42,9,9,0,4
1482545598489648,0,-1,-8,36,10,8,-3,9
1482545598495652,2,6,22,-2,7,6,-1,2
1482545598495652,-7,-19,-57,-13,-5,4,7,-4
1482545598512678,9,6,7,-14,-7,-7,-2,2
1482545598512678,-4,-4,-1,-5,-5,-5,-6,-13
1482545598513678,3,4,22,11,-1,-3,-2,6
1482545598513678,1,6,26,22,12,6,4,2
1482545598535208,-3,1,46,-16,6,-2,-3,-6
1482545598535208,1,-7,-13,26,8,4,-2,-4
1482545598536709,0,7,26,-6,-11,-2,-3,7
1482545598536709,-1,6,3,-17,-4,-6,1,4
1482545598548715,-1,-20,-56,-23,0,1,-3,-7
1482545598548715,-2,10,47,42,1,0,-4,-4
1482545598557733,3,-7,-21,-15,2,-2,1,6
1482545598557733,2,6,10,-10,2,2,2,-5
1482545598572732,5,9,28,-2,5,1,2,2
1482545598572732,-7,-14,-13,15,-10,-9,-9,-5
1482545598573734,7,-2,32,18,-2,2,3,7
1482545598573734,-13,-3,-12,-25,-1,6,2,-4
1482545598596765,-7,1,11,-23,-4,-8,-5,-7
1482545598596765,0,-1,15,25,6,6,1,5
1482545598597752,1,3,-12,-48,-7,-2,-3,1
1482545598597752,2,-4,16,8,2,-1,0,-3
1482545598608804,4,5,13,40,12,6,4,5
1482545598608804,-5,0,-34,-49,-17,-10,-4,-5
1482545598617817,-2,4,20,31,1,-1,-3,0
1482545598617817,0,-10,-29,26,0,-2,-2,-3
1482545598632867,-1,-2,-19,-48,4,4,2,3
1482545598632867,-1,3,37,26,7,5,1,-3
1482545598634386,-5,-2,-37,-3,-3,-5,-1,-2
1482545598634386,0,1,27,-22,-10,-7,-2,-3
1482545598654529,3,7,-6,29,3,2,2,2
1482545598654529,-1,3,5,-8,-2,0,-4,-1
1482545598656515,-5,-8,-11,-5,-5,-3,-5,-2
1482545598656515,2,2,27,5,4,0,3,1
1482545598668539,-1,-13,-23,-13,-2,0,-9,-2
1482545598668539,0,-1,2,-6,-2,-2,15,2
1482545598677529,-3,2,-1,7,-5,-4,5,-8
1482545598677529,-4,-7,-7,-6,-5,-3,-4,-19
1482545598692601,2,4,15,2,-2,1,-7,19
1482545598692601,10,-1,-2,0,1,1,7,3
1482545598694545,-12,-7,-16,17,0,-1,-7,-2
1482545598694545,8,5,29,-5,-4,-2,2,3
1482545598714571,26,-3,-15,-6,3,7,1,-9
1482545598714571,-3,2,-19,27,1,-2,-11,-4
1482545598716561,-1,-9,15,29,5,-4,-2,3
1482545598716561,0,3,-4,-95,4,11,2,3
1482545598728584,-25,0,32,85,-9,-13,-4,-6
1482545598728584,5,0,-15,-52,1,-2,-3,0
1482545598737654,6,-1,-3,14,-1,0,2,-2
1482545598737654,-13,-4,15,50,-10,-8,-3,-1
1482545598752936,6,3,-26,-36,7,6,-5,8
1482545598752936,-7,-3,16,18,0,-1,10,-11
1482545598753911,0,-4,-26,-9,-2,0,-53,-6
1482545598753911,12,3,-11,-15,-6,-3,67,1
1482545598774945,-8,2,0,-51,-5,-5,-2,-4
1482545598774945,-6,-4,15,33,-6,-2,-14,-6
1482545598776946,-3,0,-3,-37,0,-1,-6,-14
1482545598776946,4,-7,-19,-31,-3,-4,-17,5
1482545598788954,3,2,4,27,-1,1,5,0
1482545598788954,-17,-2,-1,-41,0,1,6,-2
1482545598797941,3,-3,25,24,3,1,15,11
1482545598797941,-4,4,-13,-12,0,-1,-15,-2
1482545598813967,-5,2,20,65,1,-2,12,-2
1482545598813967,1,-8,-10,21,-7,0,-16,-9
1482545598815970,0,1,0,-67,-8,-2,16,6
1482545598815970,-3,4,2,17,1,-4,-14,-5
1482545598835001,3,-8,-48,-44,-6,-1,-8,-11
1482545598835001,2,8,4,28,4,11,9,8
1482545598837002,-4,-5,1,10,-3,-4,-17,1
1482545598837002,-13,-7,-38,-4,-4,-7,18,3
1482545598849007,-9,3,20,-4,-5,-3,-12,7
1482545598849007,1,-3,8,-60,-10,-13,-12,-10
1482545598857071,1,-3,-46,-44,-7,7,21,2
1482545598857071,1,4,15,-2,11,11,-18,3
1482545598872081,-2,-1,27,67,6,5,8,0
1482545598872081,-6,2,-12,-35,0,-3,2,4
1482545598874087,-2,1,-11,26,-5,-7,-7,-4
1482545598874087,28,5,37,-1,-1,-3,-5,-2
1482545598895097,3,1,-78,-20,5,12,12,1
1482545598895097,-8,-5,46,13,-13,-10,-9,-4
1482545598896099,-3,0,11,35,1,-1,10,15
1482545598896099,-8,-16,-12,54,-5,-5,-12,-10
1482545598908115,0,1,29,-42,3,-2,-3,-1
1482545598908115,6,5,-24,28,-2,3,3,9
1482545598917113,1,4,0,12,7,4,5,-4
1482545598917113,0,8,15,-8,-2,-3,-5,3
1482545598932124,2,-1,19,2,-6,-5,-4,-5
1482545598932124,1,-8,-39,-3,-9,-1,5,2
1482545598938644,-2,-1,15,-6,27,10,5,-2
1482545598938644,-3,1,-36,0,-8,-4,-8,-1
1482545598955153,-4,-5,10,-18,2,4,5,-4
1482545598955153,3,6,7,3,-2,1,-2,1
1482545598956654,0,-6,-6,-21,-11,-7,-4,6
1482545598956654,-4,-4,-22,-7,-2,-3,-8,-3
1482545598968653,6,2,0,-2,-4,-5,-1,0
1482545598968653,-13,-5,-11,-16,8,3,5,-4
1482545598977669,-1,-3,1,15,-4,-1,-4,-5
1482545598977669,-4,-2,16,5,-1,0,2,1
1482545598992267,-3,0,-11,-17,-7,0,0,-1
1482545598992267,9,0,3,9,8,2,-1,3
1482545598994229,-1,3,10,16,-5,-3,-1,-2
1482545598994229,-3,-3,0,-12,2,4,0,-2
1482545599016277,1,-1,-4,-11,-13,-5,-4,-4
1482545599016277,3,3,-13,-15,17,3,1,3
1482545599018259,-2,4,4,7,-21,-8,1,1
1482545599018259,-1,-1,7,-14,-4,0,0,0
1482545599028264,-2,5,7,9,2,1,-1,1
1482545599028264,-2,-6,4,2,-4,-4,-3,-3
1482545599037265,-2,-4,14,-45,-5,-8,-2,-5
1482545599037265,-1,-1,-9,8,3,0,-2,0
1482545599052275,-2,-2,-1,7,0,0,-2,0
1482545599052275,-2,-2,12,7,1,5,1,-1
1482545599054283,2,3,-6,26,5,-1,0,-6
1482545599054283,-2,3,29,13,2,2,4,-1
1482545599075311,3,1,-33,-40,3,-4,0,1
1482545599075311,3,1,-17,11,-7,-5,-1,-1
1482545599076799,4,6,45,43,8,5,-3,-2
1482545599076799,-5,-4,-28,-39,-2,4,-15,3
1482545599088701,-4,-3,33,7,6,-8,19,-3
1482545599088701,2,6,11,-2,-3,-3,-11,-3
1482545599097796,1,-5,0,-5,1,1,0,1
1482545599097796,1,3,47,48,4,3,28,11
1482545599112829,-3,-8,-52,-38,-11,4,-10,1
1482545599112829,-4,-2,-8,-25,8,-3,13,-4
1482545599113806,1,0,2,13,-3,-4,-14,5
1482545599113806,5,-2,37,26,3,2,-5,12
1482545599134880,1,-3,-76,-41,2,3,-1,0
1482545599134880,-6,2,3,2,-1,-3,-4,-11
1482545599136843,-6,-3,-6,9,-1,2,5,-3
1482545599136843,-1,-3,-20,-6,-5,-6,-5,-8
1482545599148871,-2,3,11,4,3,-1,5,-2
1482545599148871,6,-1,83,37,-7,-6,-9,4
1482545599157965,-7,-12,-99,-58,-2,4,5,-1
1482545599157965,-15,-3,-26,-22,-14,-10,-8,-8
1482545599172017,7,9,49,27,-2,-3,-7,-1
1482545599172017,9,-8,-11,9,-4,1,-1,2
1482545599179022,-3,2,26,11,-4,-8,-1,-2
1482545599179022,2,-6,-20,7,-2,0,-1,-3
1482545599195034,-5,0,14,1,7,3,-2,-1
1482545599195034,-2,2,-22,3,1,8,6,9
1482545599197036,6,1,-12,-13,-4,-2,-2,-1
1482545599197036,-5,6,-23,-7,1,-2,-3,-7
1482545599217050,-11,-6,32,15,1,-1,-2,0
1482545599217050,8,7,-18,-9,0,1,-1,-7
1482545599219051,15,-1,25,44,-4,-3,-1,-2
1482545599219051,-24,-10,-20,-70,15,7,0,0
1482545599240066,11,-1,16,33,-8,-6,-5,-3
1482545599240066,-5,3,28,12,7,4,3,4
1482545599241066,2,2,-13,-22,-3,-5,0,2
1482545599241066,11,0,-42,48,-9,-9,-5,-4
1482545599255076,2,3,-14,-17,15,9,-2,1
1482545599255076,-10,-4,4,-7,-10,-6,-5,-3
1482545599256078,-3,4,14,1,10,4,0,-1
1482545599256078,7,0,7,13,-5,0,1,3
1482545599277594,-11,-6,16,33,-1,-5,-3,-4
1482545599277594,9,0,-32,-14,0,-1,-3,1
1482545599279095,-8,-2,-35,-28,-10,-4,-2,-4
1482545599279095,-3,1,-7,-13,-1,-1,-1,-2
1482545599291616,12,5,11,-17,-5,-11,-3,3
1482545599291616,17,-3,12,10,6,6,6,3
1482545599298621,-17,-5,-11,4,-5,-4,-2,-5
1482545599298621,9,-1,20,-7,6,4,2,0
1482545599316647,-3,-1,-3,-12,-5,0,0,-2
1482545599316647,-3,-1,-9,-17,-6,-9,-6,-1
1482545599317659,4,4,4,4,9,4,1,1
1482545599317659,0,2,14,3,-1,1,0,-2
1482545599337662,-3,1,-14,-19,-9,-3,-1,-2
1482545599337662,-9,-2,-9,20,0,4,-1,-7
1482545599338663,0,-2,6,-1,0,-4,4,-1
1482545599338663,-1,-2,14,3,1,-4,-5,-2
1482545599351671,-4,-4,-11,4,1,7,-3,-5
1482545599351671,-4,0,-4,-7,0,-5,5,-2
1482545599358677,-3,2,18,1,-2,1,-2,-1
1482545599358677,4,3,6,-2,0,0,-11,-1
1482545599375233,-3,-4,-11,-11,-4,2,9,9
1482545599375233,-4,0,0,10,0,-4,-13,-3
1482545599376719,2,1,30,-1,4,0,3,1
1482545599376719,-2,-2,-39,-18,3,1,-7,-5
1482545599397235,-2,-1,19,15,4,3,1,0
1482545599397235,-2,-1,1,-21,0,4,3,4
1482545599399239,-1,-1,2,37,-2,3,-5,-6
1482545599399239,-1,0,16,-4,-5,-14,1,4
1482545599421269,0,-2,-19,12,4,-1,2,3
1482545599421269,-1,-4,-14,-25,1,6,5,1
1482545599423253,4,5,13,4,8,5,-2,-1
1482545599423253,-3,-2,-5,-8,-8,2,12,3
1482545599435313,1,-1,-6,-3,-8,-9,-19,13
1482545599435313,-7,-4,-15,6,0,-6,9,4
1482545599436286,-2,1,5,-15,-1,3,0,-2
1482545599436286,0,-1,5,-5,2,-2,-24,-21
1482545599457412,-3,-2,-1,-1,-4,-8,29,12
1482545599457412,0,4,-9,-4,0,1,-51,-20
1482545599459378,5,-6,-14,-27,-2,-1,59,31
1482545599459378,5,3,0,15,-3,1,-2,1
1482545599479909,-3,-4,4,-1,0,-1,-21,-11
1482545599479909,1,1,-3,-10,-6,0,16,6
1482545599481993,5,-2,-10,1,-3,-4,-17,-9
1482545599481993,-1,0,-4,-7,4,2,-2,0
1482545599495040,-5,-5,9,3,-5,-2,-6,-11
1482545599495040,-4,1,15,31,0,3,0,-1
1482545599497005,-3,-3,-13,-7,6,13,-6,-13
1482545599497005,-2,-2,3,-3,-5,-8,19,7
1482545599517054,-1,3,-5,-3,0,1,13,3
1482545599517054,0,0,-7,-20,-2,-6,-1,3
1482545599519009,-5,1,1,35,-6,-7,-13,-7
1482545599519009,0,-5,8,-11,4,3,-7,-5
1482545599531113,4,1,-11,-4,1,2,-1,-22
1482545599531113,-2,-8,22,6,1,-2,0,11
1482545599540082,-1,2,-11,-14,-5,-3,-9,7
1482545599540082,-1,0,11,19,3,2,5,5
1482545599555093,12,1,0,-3,-4,-1,7,0
1482545599555093,-10,-1,-9,-12,-11,-10,-2,-12
1482545599557083,-2,-5,-32,-33,21,13,0,0
1482545599557083,-4,3,53,20,-11,0,-5,2
1482545599577688,2,-3,-18,4,-8,-5,-12,-9
1482545599577688,-2,-5,-19,-3,-5,-3,9,5
1482545599579177,-1,-2,-5,26,-15,-15,-10,-4
1482545599579177,4,4,-8,-7,10,9,12,7
1482545599599425,3,2,2,-3,11,7,-5,1
1482545599599425,0,0,4,0,0,2,5,-2
1482545599600372,-1,5,6,-62,4,0,1,4
1482545599600372,-6,-8,1,68,-16,-15,-12,-11
1482545599614436,-1,1,-21,3,3,-3,-20,-6
1482545599614436,6,6,-20,-14,7,10,29,10
1482545599615377,-4,-1,-8,-15,-1,-2,-3,-7
1482545599615377,6,-4,1,-12,0,2,-12,15
1482545599636408,-7,6,16,-9,-4,0,3,-18
1482545599636408,-2,2,-9,9,4,-7,1,3
1482545599637398,0,-3,2,14,-6,-3,6,0
1482545599637398,-1,-5,-4,-11,-6,-7,-21,-9
1482545599659575,-7,-4,1,8,4,2,19,16
1482545599659575,2,1,9,-11,-7,4,-5,-4
1482545599660539,0,-3,14,16,-7,-7,-1,-3
1482545599660539,-6,2,-12,-8,2,-1,5,-3
1482545599674704,1,1,1,-16,-1,4,1,6
1482545599674704,-5,-6,-1,11,4,1,1,-3
1482545599675147,-1,1,8,7,-3,-2,-11,0
1482545599675147,0,1,-25,-13,3,1,-4,0
1482545599696435,6,3,17,-39,4,2,22,5
1482545599696435,-6,-1,8,2,-10,-8,-18,-10
1482545599697376,2,-3,10,17,-1,-2,1,-3
1482545599697376,1,4,-5,-10,4,4,2,2
1482545599719533,5,3,-24,-6,-2,-3,-9,3
1482545599719533,-4,0,13,-2,0,-1,-7,-5
1482545599720518,1,-1,8,1,-2,2,4,0
1482545599720518,-2,-1,0,-10,-5,-4,9,-13
1482545599735529,-7,-3,-10,14,1,5,-10,14
1482545599735529,2,-1,-2,2,1,-1,2,-2
1482545599736530,-4,-5,-13,3,2,3,-18,-11
1482545599736530,2,0,8,5,0,-1,27,8
1482545599756565,2,6,25,10,-3,-4,3,-3
1482545599756565,-2,-13,-17,3,-1,4,5,31
1482545599764570,13,-2,-12,-14,1,2,-48,-55
1482545599764570,-27,-11,0,9,0,-1,73,-12
1482545599780101,0,6,21,-4,-9,-8,-16,-4
1482545599780101,0,-6,-13,7,-2,-4,-9,-3
1482545599780598,-1,-3,3,-28,4,-1,5,6
1482545599780598,5,4,0,6,4,3,-13,23
1482545599793960,3,16,-7,13,1,1,3,2
1482545599793960,-10,-58,-2,5,-11,-7,1,-14
1482545599794961,-10,1,-46,-18,-14,-10,-14,17
1482545599794961,7,28,32,-4,1,1,18,0
1482545599816975,-1,-14,15,6,-1,0,1,3
1482545599816975,-9,-36,-61,-14,-5,-5,-17,-8
1482545599817976,-9,-16,23,9,-14,-6,10,2
1482545599817976,4,3,-1,-10,19,11,-19,-3
1482545599839003,-1,11,-24,22,16,5,21,4
1482545599839003,7,23,108,13,4,1,-21,-7
1482545599839993,-3,-18,-61,13,-3,1,30,6
1482545599839993,-5,-7,-27,-24,-34,-10,-29,-14
1482545599854056,-11,-4,15,12,6,-5,-15,-7
1482545599854056,5,22,-14,-11,9,5,-40,-24
1482545599855005,3,8,47,32,6,6,109,60
1482545599855005,6,1,-58,-16,5,6,-23,-2
1482545599877095,-3,-11,34,-9,-12,-3,-11,-14
1482545599877095,-2,12,34,1,-4,-9,4,-6
1482545599878085,0,18,23,-11,3,4,-34,-20
1482545599878085,1,-8,-7,22,0,-6,10,13
1482545599899101,2,6,1,-40,-9,-2,-2,1
1482545599899101,1,6,-20,-5,-8,-5,3,2
1482545599900101,1,-2,3,31,22,7,-9,-1
1482545599900101,-2,2,18,0,-5,-6,-13,-13
1482545599914110,-3,-13,-16,5,-3,3,-30,-22
1482545599914110,3,15,-18,-1,-1,-1,31,19
1482545599915111,-1,1,-15,-15,-10,-1,-35,-7
1482545599915111,3,-6,22,8,1,-10,-1,-11
1482545599937187,0,-4,-24,-1,-4,-4,5,2
1482545599937187,3,7,-7,-14,4,9,-7,-8
1482545599938148,-1,6,23,8,4,7,22,-6
1482545599938148,6,-1,36,10,0,-6,-24,11
1482545599959156,-9,-12,-18,-33,-17,-10,-28,-11
1482545599959156,-1,2,9,7,8,4,39,18
1482545599960156,1,-3,-20,-10,-7,-1,8,3
1482545599960156,-1,-1,26,2,1,0,-16,-4
1482545599974748,1,-1,0,14,8,5,20,8
1482545599974748,-2,-4,-15,2,0,5,-1,2
1482545599975253,-3,-2,14,-3,-5,-4,-13,-9
1482545599975253,-1,-7,-20,-6,4,-2,-10,-12
1482545599996887,2,3,-5,5,-2,3,48,27
1482545599996887,3,3,-14,-1,-4,2,4,-1
1482545599997888,-2,-1,13,-18,-1,-5,-15,-2
1482545599997888,-8,-4,-35,-20,-10,-4,-9,-21
1482545600018886,2,4,25,11,0,-7,-16,-3
1482545600018886,-4,0,-41,-18,1,1,17,-2
1482545600019886,-3,2,-2,4,-2,-5,-36,-13
1482545600019886,-2,-4,-12,0,3,8,0,6
1482545600033894,1,-2,4,-3,-4,-3,-15,-14
1482545600033894,3,-5,-1,10,-2,4,51,13
1482545600034898,1,0,25,0,-3,-10,-74,-13
1482545600034898,1,5,0,0,3,3,50,8
1482545600057911,-7,-4,-6,3,3,-6,4,21
1482545600057911,1,3,24,1,-2,-2,-4,-14
1482545600058912,-2,3,-26,-13,0,1,-6,5
1482545600058912,0,3,22,19,6,5,-4,8
1482545600079430,0,-2,1,4,1,1,-11,-8
1482545600079430,0,-2,-4,1,2,-1,-26,-11
1482545600080436,-3,-8,6,3,-5,-2,39,21
1482545600080436,-2,-6,-3,-6,-8,-5,-17,-5
1482545600094260,-1,0,-6,1,-2,0,8,-2
1482545600094260,-4,-1,-2,14,15,4,-8,-1
1482545600095260,0,5,1,-1,-1,-1,5,-8
1482545600095260,-3,-4,-9,-9,4,0,12,13
1482545600116275,-1,-1,4,0,-4,-1,-8,-13
1482545600116275,-1,0,4,2,-6,-6,0,6
1482545600117276,0,-1,0,3,3,3,12,6
1482545600117276,-1,4,14,0,0,2,-9,-4
1482545600139291,2,-5,-17,-1,-4,-1,19,7
1482545600139291,-3,-5,1,-10,-11,-11,-22,-5
1482545600140291,2,3,-9,9,1,0,10,1
1482545600140291,-2,-1,-3,-15,5,9,6,0
1482545600154302,-5,1,8,3,-1,1,-9,-1
1482545600154302,-3,2,6,-5,1,-2,-7,-1
1482545600155303,-1,-5,0,3,-4,-6,1,-3
1482545600155303,0,-3,0,10,2,3,7,4
1482545600176836,0,3,2,-11,11,12,-3,6
1482545600176836,2,-3,-5,-4,-12,-8,-20,-6
1482545600177837,-1,-8,-17,-32,8,6,29,14
1482545600177837,-9,-1,25,35,-13,-15,0,0
1482545600199233,1,-3,-13,-4,8,2,4,3
1482545600199233,9,5,1,-15,1,3,-2,4
1482545600207189,-1,2,-3,18,0,-1,-2,-7
1482545600207189,-2,-2,-10,-15,1,-1,-2,-2
1482545600213194,-4,-6,5,-2,-6,-6,-5,-6
1482545600213194,-4,2,-6,6,1,1,-9,-3
1482545600222214,4,0,12,-6,0,3,17,3
1482545600222214,0,-4,-3,-3,-4,5,-18,4
1482545600237213,5,-1,3,14,16,8,37,1
1482545600237213,4,3,-17,-15,1,-4,-16,2
1482545600237213,-23,-1,0,1,-7,-5,-39,-30
1482545600237213,-1,-7,-8,26,-15,-11,5,24
1482545600259361,2,9,-8,-65,15,10,-15,-28
1482545600259361,-8,-2,21,80,-3,-8,-4,-7
1482545600260308,5,-1,-3,-7,-5,-2,-11,-6
1482545600260308,6,0,-14,-2,8,1,-2,5
1482545600275350,-13,-5,-16,-16,-7,0,-12,-7
1482545600275350,-2,0,1,-15,3,4,-9,-6
1482545600281989,25,-2,6,14,-2,-5,24,56
1482545600281989,0,0,-5,-7,-3,-4,-9,-41
1482545600296994,-17,-3,13,10,-5,-5,-5,-6
1482545600296994,-11,-7,-11,-26,4,4,24,21
1482545600298001,-3,5,34,53,-2,-2,-3,-2
1482545600298001,3,-5,-28,-43,-3,-2,2,25
1482545600319014,5,-4,-11,-10,-2,-4,2,6
1482545600319014,-10,-1,66,51,-1,-2,-10,-22
1482545600320011,-9,-8,-64,-57,-13,-7,-5,0
1482545600320011,5,1,18,10,10,10,10,6
1482545600334025,-10,0,5,20,-7,-5,-9,-15
1482545600334025,4,2,-26,-50,-3,3,-4,19
1482545600335014,4,0,19,27,5,-5,3,-17
1482545600335014,-6,0,-12,-9,-15,-4,-33,-28
1482545600357042,-5,-10,5,1,-2,-1,43,22
1482545600357042,18,5,-3,-10,-1,3,3,31
1482545600358038,-4,2,-3,-4,0,0,1,-14
1482545600358038,13,-1,0,5,-3,-8,-20,-1
1482545600379575,-32,-1,1,3,0,3,-10,-9
1482545600379575,0,-3,-24,-8,1,3,-55,-31
1482545600380575,0,-5,1,6,4,-1,75,47
1482545600380575,-3,0,7,-9,4,3,1,-9
1482545600394172,22,-4,0,14,-2,1,11,52
1482545600394172,-12,2,3,-3,-3,-3,-13,-38
1482545600395157,-5,-2,15,28,1,0,-37,-27
1482545600395157,-1,-4,-37,-66,-8,-9,5,-8
1482545600417229,5,-1,24,40,-3,-4,40,21
1482545600417229,-5,4,-9,1,2,1,4,3
1482545600417229,3,2,9,-12,-1,-3,-19,1
1482545600417229,-2,1,4,16,2,7,25,16
1482545600439259,2,1,-21,-17,-5,-5,-50,-61
1482545600439259,0,-5,10,-25,-6,-8,16,4
1482545600440256,5,3,-3,-7,5,7,6,15
1482545600440256,-6,4,20,25,4,5,-1,3
1482545600454254,1,5,-20,-3,-6,-6,-25,-49
1482545600454254,10,1,-1,13,10,15,24,15
1482545600455259,-3,-3,6,-41,-7,-11,-4,-8
1482545600455259,-3,-3,-8,-14,5,6,5,5
1482545600476810,14,2,8,17,3,0,2,24
1482545600476810,-1,-4,-1,-9,-3,-6,3,47
1482545600477810,-7,-3,-18,14,-1,1,-8,-40
1482545600477810,-6,1,20,8,-6,-3,4,-5
1482545600498841,5,6,2,-8,1,2,-10,8
1482545600498841,8,2,-8,-7,0,-1,11,16
1482545600499827,-14,5,-14,0,-2,1,-5,-22
1482545600499827,7,-1,24,-4,0,-5,-3,36
1482545600513849,-1,4,-10,74,-6,-3,6,-50
1482545600513849,3,-1,2,-28,-5,-6,18,15
1482545600514839,3,-4,-14,-4,-2,-2,-35,-18
1482545600514839,-1,-2,-2,-8,3,1,58,25
1482545600536865,-8,4,8,-17,7,11,-22,-1
1482545600536865,-5,-5,-13,17,-8,-15,-1,-8
1482545600537866,0,-1,-16,-4,1,2,-2,-2
1482545600537866,5,2,-2,-40,3,3,-11,-5
1482545600558879,-1,-5,25,48,-16,-14,-6,14
1482545600558879,-4,1,-3,21,1,-1,8,-24
1482545600559880,3,0,-8,-39,3,-2,-8,36
1482545600559880,-7,-1,-1,77,-6,-8,-18,-39
1482545600582407,7,-4,-18,-49,10,12,10,18
1482545600582407,-7,0,6,-18,-1,2,-2,-18
1482545600583399,11,0,-25,17,5,7,18,31
1482545600583399,-14,-1,61,38,-14,-14,-19,-73
1482545600596908,0,-1,-17,-12,1,-5,-2,15
1482545600596908,-2,-2,-3,-4,-1,3,-11,-33
1482545600597919,-1,3,-4,-11,1,-1,4,6
1482545600597919,4,4,-18,-5,-1,-1,1,7
1482545600619449,-1,-11,-10,-29,-3,2,2,13
1482545600619449,16,1,0,-23,10,8,8,32
1482545600620449,-25,-5,38,84,-21,-16,-29,-67
1482545600620449,-6,-6,3,-3,5,2,21,6
1482545600634460,10,10,4,-7,-2,-4,-31,-23
1482545600634460,-14,-17,-51,-4,2,0,43,30
1482545600635463,19,5,22,-10,1,4,1,3
1482545600635463,0,-5,-16,-7,2,-1,-37,-10
1482545600656570,-6,3,6,-1,-2,-4,32,9
1482545600656570,2,-2,12,16,-1,-3,-68,-46
1482545600657572,21,7,-5,-19,0,5,45,65
1482545600657572,-32,7,-19,0,-5,-2,-17,-64
1482545600679575,15,2,-10,-38,9,7,14,16
1482545600679575,-5,0,38,55,-5,-5,-24,-25
1482545600679575,-4,-10,9,14,-3,-5,-17,-14
1482545600679575,9,6,-36,-20,7,2,3,35
1482545600694642,-3,-4,7,6,-2,-1,-4,0
1482545600694642,-2,-3,-16,-13,-6,-3,20,-1
1482545600694642,-5,-5,30,16,6,5,-20,-9
1482545600694642,9,0,-6,-39,-6,0,64,66
1482545600716663,-5,-12,-2,-4,-3,-4,-6,2
1482545600716663,-2,5,7,-2,5,9,-11,-53
1482545600717662,-1,-1,-11,-22,-2,0,-6,10
1482545600717662,0,1,3,4,-5,-3,-24,1
1482545600739762,3,-2,9,7,-2,0,3,26
1482545600739762,-1,-2,-8,-23,-7,-7,13,16
1482545600740267,-7,-3,-2,-6,6,8,6,-11
1482545600740267,4,0,11,9,3,2,-2,0
1482545600753829,-3,-3,-29,-4,-2,-2,0,-14
1482545600753829,1,19,49,12,0,-1,7,15
1482545600761863,-8,-16,-39,-17,-3,-5,-6,-12
1482545600761863,5,3,7,-3,-2,-4,-20,0
1482545600776873,-4,0,9,4,2,2,1,-4
1482545600776873,9,4,-26,9,6,5,10,12
1482545600777851,-12,-4,-4,-10,-4,-7,13,2
1482545600777851,12,4,-12,-1,4,5,-14,1
1482545600798889,-10,-1,19,7,-1,-2,-5,-12
1482545600798889,1,-1,29,-10,-6,-7,-5,11
1482545600799865,4,19,6,3,3,3,0,2
1482545600799865,0,-28,-9,2,-1,-6,6,0
1482545600813886,1,10,33,9,-1,-1,-4,-14
1482545600813886,-1,-7,-64,-46,-2,-1,-1,4
1482545600821894,-2,-1,46,-4,-3,-1,-1,-5
1482545600821894,-5,7,7,24,4,1,1,-3
1482545600836918,3,-2,-5,-33,-8,-2,-2,7
1482545600836918,-4,-9,-4,15,4,5,0,-5
1482545600837917,1,5,-4,-19,-6,-9,1,0
1482545600837917,-4,-6,-4,5,6,8,10,-3
1482545600859012,-2,-3,-5,8,-4,-4,-9,-5
1482545600859012,-1,-4,7,6,-5,-5,5,17
1482545600860013,2,5,12,-2,4,3,-7,-9
1482545600860013,-5,-17,-20,-5,-3,-6,-5,-2
1482545600874029,0,1,-11,2,3,1,-15,-5
1482545600874029,-4,4,35,7,3,2,26,-2
1482545600882029,6,0,-14,5,4,8,-5,12
1482545600882029,-4,3,-6,-11,-10,-8,5,-3
1482545600897046,-1,-2,-4,-5,-9,-10,-20,-19
1482545600897046,0,6,20,7,0,-5,-10,2
1482545600898044,-2,-6,-19,-3,2,6,21,-3
1482545600898044,6,4,-13,6,6,8,4,3
1482545600919057,-4,-1,4,-9,-14,-15,-7,2
1482545600919057,-2,2,15,14,1,1,6,-5
1482545600920043,-4,-7,-2,-17,-3,8,-3,-7
1482545600920043,2,5,14,30,31,18,1,5
1482545600942573,-2,0,15,-1,-5,-3,7,4
1482545600942573,-4,1,-9,12,-10,-9,-11,-7
1482545600943574,0,0,37,9,-1,-3,2,6
1482545600943574,-1,2,0,-26,-15,-14,-9,-1
1482545600957083,-4,-20,-16,12,7,4,7,0
1482545600957083,4,15,6,-3,5,8,-1,0
1482545600957584,-4,-18,-52,-28,-9,-8,1,-4
1482545600957584,-2,9,59,8,-6,-2,0,-2
1482545600979160,-1,-13,-82,-7,-3,-3,-3,0
1482545600979160,-1,-6,-9,0,6,8,16,17
1482545600980161,0,5,12,5,-1,-8,-11,-12
1482545600980161,-1,-3,-21,-7,-4,-3,2,-1
1482545601002189,-1,5,-5,-6,1,3,3,13
1482545601002189,-3,-7,-38,8,0,-1,-10,-21
1482545601003177,3,5,-7,-4,-2,-2,1,5
1482545601003177,1,-3,15,-7,-17,-4,8,16
1482545601017188,-1,4,20,15,32,8,-3,-15
1482545601017188,2,-6,1,-34,-16,2,-12,-12
1482545601017188,-3,-1,-7,20,14,-1,-9,-12
1482545601017188,-2,4,10,2,-10,-6,-8,-11
1482545601047226,0,2,5,-8,-6,-7,9,14
1482545601047226,1,-2,13,-5,-7,-8,0,2
1482545601048210,-2,-3,5,28,18,14,7,3
1482545601048210,11,-2,-8,-7,-6,-1,-2,-3
1482545601054216,1,-11,-21,0,0,1,4,2
1482545601054216,0,-6,0,5,6,-1,0,-4
1482545601062308,2,4,23,-10,-13,-6,-2,14
1482545601062308,-2,-11,-63,7,7,-1,4,40
1482545601076521,-6,14,31,-6,-12,-7,-26,-105
1482545601076521,4,-2,0,1,-3,-6,-13,16
1482545601077511,-2,-2,-52,-13,-1,-1,7,7
1482545601077511,1,6,27,9,1,3,1,-6
1482545601099636,-1,-2,10,-24,-5,2,13,30
1482545601099636,-3,-3,17,17,14,2,2,-1
1482545601099636,1,3,-5,22,-12,-2,-3,-15
1482545601099636,-3,-6,-2,-54,-6,-4,-2,-4
1482545601122654,-2,4,-4,26,-7,4,4,14
1482545601122654,-8,1,1,-4,15,7,0,-11
1482545601123652,4,0,7,12,1,2,0,25
1482545601123652,-3,-5,-16,-6,-15,-14,-16,-4
1482545601136660,-2,4,23,3,0,-5,-4,-27
1482545601136660,-3,-2,0,-29,-17,-8,-8,0
1482545601137646,-7,-11,-37,-14,16,-3,11,9
1482545601137646,-8,5,9,31,8,8,-3,-20
1482545601159680,2,-3,-27,-31,-21,-6,-3,23
1482545601159680,2,0,-4,-10,2,7,7,-3
1482545601160184,5,5,44,48,10,12,2,-3
1482545601160184,-2,-5,-36,-33,-6,-6,-5,-1
1482545601182796,6,5,13,24,-3,-1,6,15
1482545601182796,-2,2,6,-11,-10,-11,-8,-17
1482545601182796,-1,-7,-8,34,-14,-9,-7,19
1482545601182796,0,6,-22,-55,25,8,7,-11
1482545601196792,-1,0,-31,3,-7,2,0,4
1482545601196792,5,0,-13,8,-2,0,3,0
1482545601197793,-1,8,25,7,0,-1,4,-17
1482545601197793,-7,-9,22,7,-21,-5,1,16
1482545601218812,0,-1,4,0,19,6,-2,-10
1482545601218812,-6,-4,-10,8,-3,-10,-7,-4
1482545601219814,3,-1,-2,-28,-15,-5,-9,8
1482545601219814,-5,2,-5,34,10,6,5,-12
1482545601242827,-6,-7,18,-40,0,-3,-4,37
1482545601242827,4,-3,11,31,40,14,6,-3
1482545601242827,0,7,1,19,-15,-8,-17,-36
1482545601242827,-4,-3,17,-6,26,6,-3,-11
1482545601256848,6,11,-14,-5,-35,-4,5,24
1482545601256848,-7,-4,-13,0,24,10,6,0
1482545601257848,3,-2,-38,-38,-39,-17,1,10
1482545601257848,7,8,36,56,-2,-5,-2,3
1482545601279027,-10,-13,-13,-71,12,3,-1,-23
1482545601279027,11,7,15,50,-18,-3,2,10
1482545601280026,1,6,-16,-57,6,4,11,4
1482545601280026,3,-9,3,11,-18,0,-5,10
1482545601302043,-9,11,64,47,45,4,-8,-49
1482545601302043,-18,-13,-17,-50,-45,-20,-18,-15
1482545601303032,3,-6,43,35,15,12,19,9
1482545601303032,10,14,-25,-26,37,14,8,44
1482545601317054,3,6,33,21,-23,-9,-21,-7
1482545601317054,-3,2,-40,-52,-17,-4,4,1
1482545601318043,-6,-3,16,-19,1,2,1,-17
1482545601318043,-2,-5,-22,32,12,11,29,-3
1482545601339069,5,-12,12,-1,-22,-6,31,38
1482545601339069,1,14,50,30,18,17,-5,-14
1482545601340070,1,4,-41,-4,33,-6,-55,-13
1482545601340070,-20,4,28,30,-12,-6,-7,-6
1482545601362602,12,-2,21,58,9,9,4,4
1482545601362602,-8,-8,-15,-25,-41,-15,35,21
1482545601363603,-6,-10,33,11,23,0,-5,22
1482545601363603,-4,0,-10,-10,-12,-10,-21,-15
1482545601377116,-3,-1,-40,5,-4,-4,-4,-22
1482545601377116,11,1,61,29,13,14,16,50
1482545601377614,-11,-6,-64,2,-36,-10,-14,-32
1482545601377614,10,2,39,-37,35,14,3,2
1482545601399168,2,-5,-41,20,-12,-10,7,3
1482545601399168,7,3,-20,25,15,8,16,1
1482545601400167,-6,-2,8,-51,-13,-7,-6,30
1482545601400167,4,4,-7,12,-43,-14,-14,-34
1482545601422212,14,0,33,-6,34,12,13,-14
1482545601422212,4,-3,-58,17,35,23,23,19
1482545601423185,-12,10,33,-51,-9,-17,-37,0
1482545601423185,-16,-3,-14,-26,-12,-6,-4,-20
1482545601437234,11,11,53,-5,-19,-16,-25,-23
1482545601437234,-6,-6,-62,17,6,5,-12,27
1482545601437234,19,-3,97,35,-13,10,73,59
1482545601437234,-10,4,-37,-44,17,-5,-64,-23
1482545601459306,16,5,-3,49,24,19,65,108
1482545601459306,-11,-15,15,-50,-21,-28,-29,-42
1482545601460259,-7,1,-7,36,20,7,-20,-49
1482545601460259,3,-7,15,33,-8,-3,10,16
1482545601481921,-5,-6,-32,-58,-46,-9,-9,-16
1482545601481921,5,-1,41,51,34,7,13,8
1482545601489423,-15,-6,-39,-25,20,19,2,-22
1482545601489423,-6,-10,-15,-15,-35,-18,3,-7
1482545601495939,-16,5,28,-52,6,5,-11,4
1482545601495939,14,-2,33,18,20,-2,-15,-8
1482545601503945,8,14,1,19,-42,-13,1,9
1482545601503945,-11,-2,32,23,-22,-11,-19,-55
1482545601518956,-10,-5,-14,9,14,0,2,39
1482545601518956,-16,-10,-77,-95,-89,-21,-10,-86
1482545601519957,26,3,28,78,67,29,17,11
1482545601519957,-3,-1,17,-14,-14,-9,-11,23
1482545601541972,-6,17,42,38,9,0,-15,-23
1482545601541972,0,2,27,-7,-13,-9,-21,-3
1482545601542960,-4,-11,-43,28,15,12,41,-2
1482545601542960,19,-15,28,-10,10,-2,-8,6
1482545601556983,-17,-7,-36,20,-6,-14,-45,13
1482545601556983,-4,9,32,-15,-2,-7,15,30
1482545601557983,-2,3,2,3,-7,0,8,-40
1482545601557983,3,0,-3,7,-14,-8,13,17
1482545601579523,10,3,12,-36,-13,0,-36,9
1482545601579523,-6,-17,-21,4,78,33,24,-17
1482545601580023,-13,0,-58,-10,-76,-31,-45,8
1482545601580023,0,-2,-66,-28,-17,-1,-2,-40
1482545601601575,0,-7,13,57,-12,-14,10,22
1482545601601575,-6,-4,-58,-83,-18,-23,-2,-15
1482545601602579,-8,-14,32,-60,-1,2,3,-7
1482545601602579,-5,3,-40,68,48,22,1,13
1482545601616594,-9,-5,-5,14,-11,-6,-2,-25
1482545601616594,0,0,-45,-17,-24,-3,13,26
1482545601617589,4,-5,19,-7,1,-7,-30,-11
1482545601617589,7,6,30,8,-7,-2,33,28
1482545601639605,-5,-4,-9,-25,7,6,-47,-58
1482545601639605,16,9,27,39,-7,4,60,35
1482545601639605,-16,-4,-18,-32,10,-7,-73,-40
1482545601639605,2,-3,10,4,-2,13,81,57
1482545601661620,-5,8,-22,-17,1,-2,-108,-58
1482545601661620,1,-4,18,14,1,-5,100,42
1482545601662622,6,-7,3,1,-15,-12,-46,-15
1482545601662622,9,2,13,2,13,13,5,18
1482545601676636,21,7,-21,-8,8,13,48,55
1482545601676636,12,-2,23,21,-4,-10,-107,-57
1482545601677637,7,11,4,7,7,4,32,21
1482545601677637,0,-4,-3,-15,-12,-5,-5,-17
1482545601698762,-14,-8,-18,-11,11,8,58,14
1482545601698762,1,6,23,24,5,7,-67,-28
1482545601699724,-3,-2,-1,7,-4,5,48,22
1482545601699724,5,-3,-2,9,-16,-8,-5,-7
1482545601721742,-5,-3,-17,-18,15,4,-2,-10
1482545601721742,-7,6,11,26,-16,-5,-27,9
1482545601729745,-1,-3,2,22,7,4,11,0
1482545601729745,-7,3,-27,-41,1,-1,-6,2
1482545601735805,1,-7,1,72,-5,-5,2,-21
1482545601735805,-9,4,14,-30,-25,-8,3,12
1482545601744757,10,4,-10,-6,8,0,12,19
1482545601744757,-2,-1,28,21,-10,-9,-108,-53
1482545601759768,0,-6,-8,14,4,10,127,66
1482545601759768,-3,0,-4,-28,-12,-18,-108,-33
1482545601759768,-1,3,-48,-18,8,26,81,38
1482545601759768,-2,8,76,-2,-9,-14,-22,-44
1482545601781942,-3,-10,-9,0,-4,-4,-23,-2
1482545601781942,-2,-1,-4,-19,10,6,30,24
1482545601782941,-13,-2,-17,-13,2,-9,-17,-5
1482545601782941,1,-2,-29,-10,15,10,4,-13
1482545601796631,4,0,5,-23,-6,-1,0,-17
1482545601796631,3,-4,2,25,2,4,8,0
1482545601804691,-4,-4,8,-6,-2,-6,-29,2
1482545601804691,2,-1,-9,-1,4,5,46,27
1482545601819686,-19,0,2,-3,-9,-5,-35,-23
1482545601819686,-2,-2,-1,2,4,0,-13,5
1482545601819686,0,1,13,2,2,-3,21,6
1482545601819686,-11,4,-5,10,0,1,-23,-13
1482545601841717,28,-3,-4,-15,-3,3,13,11
1482545601841717,-9,-5,-2,10,12,6,1,-11
1482545601842696,3,2,10,19,-3,2,28,14
1482545601842696,1,2,-21,-50,-10,-6,3,4
1482545601855672,-6,-1,-2,-9,6,0,-32,-17
1482545601855672,2,1,3,8,-11,-3,32,12
1482545601864708,3,-1,9,12,3,-4,-27,-17
1482545601864708,-5,-2,-6,15,4,3,3,12
1482545601879780,0,-2,-3,-17,-1,5,10,-6
1482545601879780,-3,3,-1,3,-2,0,-22,-2
1482545601880250,-2,1,-7,9,-13,-6,-15,-13
1482545601880250,-1,-5,-9,-46,-4,-2,-1,8
1482545601901865,-2,2,4,20,-4,-8,2,-9
1482545601901865,-1,0,-3,5,8,4,-8,-20
1482545601902883,0,-4,13,-9,-1,-2,8,53
1482545601902883,-1,4,-32,10,-5,0,8,-7
1482545601915966,-3,0,3,-38,-1,-7,-24,-15
1482545601915966,0,-3,3,16,3,4,27,20
1482545601923995,2,-3,7,-4,0,-2,-22,-25
1482545601923995,2,-2,-9,26,8,1,-6,3
1482545601947955,-3,1,1,-10,0,2,13,9
1482545601947955,-1,0,-18,-11,-4,-4,-22,-4
1482545601947955,13,0,35,25,-1,0,-7,-10
1482545601947955,-28,-6,-15,-20,3,4,14,-6
1482545601962022,4,-1,11,9,-5,-2,2,0
1482545601962022,-1,0,-11,-11,3,6,37,4
1482545601963002,-1,-2,-6,6,7,2,-13,-11
1482545601963002,8,1,8,6,1,1,8,8
1482545601976134,-2,-4,-4,-10,-6,-4,-13,-4
1482545601976134,-5,-2,9,5,-2,-5,5,-3
1482545601984660,-4,-1,-9,-17,-3,2,11,-3
1482545601984660,2,0,11,16,4,1,-12,-5
1482545601999769,-2,0,-3,-9,-3,1,9,2
1482545601999769,4,0,5,24,2,-1,-10,9
1482545601999769,-3,4,-17,-46,-6,-8,-11,-16
1482545601999769,3,-4,8,13,4,-3,-19,1
1482545602021789,2,-1,-4,14,-2,5,32,19
1482545602021789,-1,2,4,1,-1,0,-13,-9
1482545602022789,-1,-1,-8,-12,6,6,-3,-3
1482545602022789,4,-4,7,18,-3,-2,8,4
1482545602044920,-2,-3,-2,-37,-3,-5,-16,-7
1482545602044920,-3,-1,4,-1,-2,-4,-12,-7
1482545602045863,-2,-2,-3,0,-1,-1,2,-2
1482545602045863,2,-1,1,6,-2,-3,0,6
1482545602060893,-2,-1,-4,13,3,1,-8,-5
1482545602060893,0,-1,3,0,5,5,3,2
1482545602061894,-1,1,-4,-6,-2,-4,-4,-5
1482545602061894,2,1,0,-1,-3,0,3,3
1482545602082007,-1,-3,-3,2,-1,-1,-6,-4
1482545602082007,-1,1,0,-2,-1,2,2,-1
1482545602082987,-1,-1,-3,3,-5,-3,-4,-4
1482545602082987,0,0,3,-3,0,1,0,0
1482545602104705,-2,-1,-13,5,-1,-2,-4,-1
1482545602104705,-1,-2,5,1,-3,-4,-6,0
1482545602105669,0,-4,3,4,1,0,-2,-5
