timestamp,emg1,emg2,emg3,emg4,emg5,emg6,emg7,emg8
1482546550268225,5,0,-3,5,-5,-6,-5,-3
1482546550268225,0,2,4,0,-3,3,0,-1
1482546550269223,1,1,-4,4,2,-2,1,-1
1482546550269223,-1,2,0,-3,-7,4,2,0
1482546550269223,4,-1,2,2,6,2,0,1
1482546550269223,-1,1,1,4,3,-1,-1,-1
1482546550272225,-15,1,-10,-3,-8,-3,-3,-3
1482546550272225,-2,-10,7,-8,-14,-10,-5,-4
1482546550289230,-1,-6,9,-4,1,1,1,-1
1482546550289230,6,2,-18,-2,-6,-6,-3,-1
1482546550290230,4,5,9,6,13,2,0,1
1482546550290230,-8,-1,0,-12,0,-3,-1,0
1482546550298236,-7,-2,-2,-1,-20,-4,-4,-3
1482546550298236,-4,-4,3,21,13,4,3,0
1482546550311255,0,-2,0,-6,-7,1,2,1
1482546550311255,4,3,2,1,3,2,1,1
1482546550318285,0,1,3,-3,3,1,0,0
1482546550318285,-2,-3,-6,-5,-6,-6,-4,-2
1482546550332342,1,-2,-2,3,-5,-2,-3,-1
1482546550332342,-1,-2,-5,4,8,4,1,0
1482546550343420,-1,0,-3,0,2,1,2,1
1482546550343420,0,3,4,-6,-4,-3,-1,-2
1482546550355418,-1,0,-1,-3,2,5,-1,1
1482546550355418,-3,-5,-8,-10,-1,-6,-4,-1
1482546550396447,-1,2,-4,-1,6,3,3,0
1482546550396447,5,1,2,3,1,3,1,0
1482546550397452,-4,-1,-1,0,3,0,0,-2
1482546550397452,11,0,-4,-5,-4,-4,-5,0
1482546550400453,-3,-3,-1,3,-4,-4,-2,-3
1482546550400453,-9,4,3,5,4,6,1,2
1482546550401450,-4,-6,-19,-6,0,-1,-1,0
1482546550401450,-1,-4,16,-7,-5,-4,-4,-3
1482546550406461,1,1,-8,7,-2,-3,-1,0
1482546550406461,2,4,6,-6,-2,-3,-1,0
1482546550415461,15,1,-28,-2,-2,0,1,-1
1482546550415461,-19,-2,-5,10,4,2,1,-1
1482546550421988,-5,-8,-9,-1,-1,-1,-3,-1
1482546550421988,-2,-4,-11,-17,-3,-5,-4,-3
1482546550437619,1,2,2,1,-2,-5,-3,1
1482546550437619,6,2,2,9,0,3,2,1
1482546550444623,1,5,3,4,-2,-1,-1,1
1482546550444623,-1,-2,-7,-10,-2,-1,-2,-1
1482546550468638,-2,0,11,35,0,1,-2,-1
1482546550468638,-1,0,2,-25,-1,-3,0,-2
1482546550469624,-2,2,3,19,1,1,3,0
1482546550469624,1,-4,-7,1,-5,-6,-1,-2
1482546550481650,-3,0,13,-2,-2,-3,-4,-1
1482546550481650,-1,-2,-9,4,1,1,-2,-1
1482546550490640,2,1,1,-12,0,2,-2,-2
1482546550490640,0,-2,2,7,1,1,-4,2
1482546550505667,0,-1,2,-6,-2,-1,3,1
1482546550505667,-2,-3,-9,-5,-2,-1,-1,0
1482546550507662,-2,-4,6,-6,0,-1,0,-1
1482546550507662,-1,2,-8,-4,-1,-2,-2,0
1482546550528808,-6,-3,6,-22,1,2,-1,-2
1482546550528808,2,-1,5,31,-4,-5,-2,-2
1482546550530323,2,-3,2,-36,-5,-1,-3,-3
1482546550530323,2,4,6,0,0,-1,1,0
1482546550542338,1,-4,-32,-9,3,0,-3,0
1482546550542338,-1,-2,-1,-19,4,3,0,-1
1482546550551338,2,7,23,35,1,1,1,2
1482546550551338,-7,-19,-15,22,-17,-11,-5,-6
1482546550565358,0,3,-6,-2,3,-2,0,0
1482546550565358,-1,-1,-14,1,34,12,4,4
1482546550567343,-1,-1,-15,-17,-3,2,0,-1
1482546550567343,0,-5,-8,-6,0,-1,0,-1
1482546550588371,-1,-3,7,21,-9,-5,-2,-3
1482546550588371,4,9,4,6,-3,-2,0,-1
1482546550590359,0,1,17,4,3,-1,1,-1
1482546550590359,2,-1,12,-9,1,3,0,0
1482546550602378,-3,-3,2,12,-4,1,-3,-1
1482546550602378,-1,-8,-4,-41,-9,-6,-4,-3
1482546550611375,2,8,6,11,5,0,-1,2
1482546550611375,-4,3,-2,13,-6,-1,0,0
1482546550625918,-3,-7,9,-13,0,0,1,1
1482546550625918,3,2,-3,10,6,1,0,0
1482546550627914,-4,-4,8,3,-11,-7,-3,-2
1482546550627914,-3,1,-12,-1,2,-2,-3,-4
1482546550648165,0,3,-15,-18,4,3,2,-1
1482546550648165,-1,-1,34,19,-10,-2,-1,-2
1482546550650166,1,-8,-20,-23,1,-2,-3,-2
1482546550650166,0,14,10,41,-1,-1,1,0
1482546550662215,-2,3,8,-15,-6,-2,-2,-2
1482546550662215,4,1,2,30,-1,-7,-3,-3
1482546550671165,-6,-4,-20,-28,13,11,7,3
1482546550671165,5,-5,-20,-18,-6,-2,2,-1
1482546550686192,-9,4,6,26,14,6,1,1
1482546550686192,-7,-18,-10,-6,-1,-1,-1,0
1482546550687198,9,-2,-1,13,-6,-2,0,-1
1482546550687198,-15,3,-7,-24,-4,-5,-4,-4
1482546550708248,6,4,-36,-13,-9,-4,-1,0
1482546550708248,0,2,25,-1,-1,0,-1,1
1482546550710211,-5,-20,-63,-3,-5,-6,-5,-2
1482546550710211,-7,0,-15,-8,1,1,1,-1
1482546550722212,1,-3,29,6,-7,-1,-1,-1
1482546550722212,-1,8,-26,-2,-4,1,-1,0
1482546550731233,5,14,23,0,-4,-4,-1,0
1482546550731233,3,-16,13,-6,6,2,-1,0
1482546550745347,-2,3,-2,2,1,-3,-1,-1
1482546550745347,-1,-1,-4,-12,-3,2,0,-1
1482546550747344,-2,1,16,6,-4,-1,-1,-2
1482546550747344,3,3,21,1,4,0,0,1
1482546550768364,1,1,4,-1,3,1,0,1
1482546550768364,-4,-11,-16,-6,-10,-2,-4,-3
1482546550770361,-4,1,7,7,5,-1,-2,-2
1482546550770361,1,5,18,3,8,3,1,1
1482546550782359,5,-2,33,8,2,-1,1,2
1482546550782359,-1,17,-18,2,-6,0,-1,-1
1482546550791386,-14,-45,-70,-11,0,-5,-3,-4
1482546550791386,2,-2,-2,-4,1,1,0,-1
1482546550805390,5,-5,-25,-11,1,-2,-2,-2
1482546550805390,-14,2,25,27,-5,1,1,1
1482546550807387,13,18,14,-24,6,1,-1,0
1482546550807387,-10,-6,15,9,-3,-1,-1,-1
1482546550828424,-5,-21,-40,3,7,0,0,-3
1482546550828424,-11,-1,-3,-4,9,1,0,-3
1482546550829913,-5,1,12,10,-4,0,0,1
1482546550829913,1,2,8,-7,-2,-3,-1,1
1482546550841532,3,6,6,4,-6,-5,-1,-1
1482546550841532,1,-11,4,-12,-3,-5,-1,-2
1482546550850541,3,8,31,21,6,7,3,1
1482546550850541,4,-2,-57,-30,-2,0,-1,-1
1482546550865553,-9,-2,42,0,-10,-4,-3,-3
1482546550865553,5,0,-2,-8,-6,-1,-2,0
1482546550867547,-3,1,-23,-3,-5,-10,-4,-2
1482546550867547,4,1,21,14,-3,-5,-1,1
1482546550888562,-3,1,-10,-3,3,4,1,0
1482546550888562,4,-2,-5,-10,-2,0,-2,0
1482546550889553,2,3,15,9,-2,3,0,0
1482546550889553,-2,-7,-4,-5,-3,-1,-1,0
1482546550901563,-1,3,14,-10,-3,-4,-1,-1
1482546550901563,5,0,-20,2,2,-1,-1,0
1482546550910597,-4,6,44,2,-3,0,-1,-2
1482546550910597,-1,0,-34,-3,-5,0,-1,-2
1482546550926159,-2,-5,25,7,2,0,-2,1
1482546550926159,6,3,-36,-24,-1,1,0,-1
1482546550927608,6,8,-9,-7,-3,-1,-1,0
1482546550927608,-10,-7,13,-1,-1,-3,-2,-2
1482546550948714,-4,-2,-6,-3,-5,-1,-2,-3
1482546550948714,0,5,10,5,-2,-5,-1,-1
1482546550949705,4,-5,3,2,-7,-10,-4,-2
1482546550949705,3,8,0,-7,2,8,1,0
1482546550961726,-2,2,1,3,6,2,3,1
1482546550961726,5,-6,0,-9,-2,0,0,0
1482546550970716,-8,0,5,6,-3,-1,-2,-3
1482546550970716,4,6,12,8,1,-3,0,-1
1482546550984744,-1,-4,-10,-4,-2,0,-14,0
1482546550984744,-2,-7,2,-8,-1,-1,17,7
1482546550991749,-2,-1,6,13,2,0,-1,2
1482546550991749,5,7,-5,-7,1,3,0,-2
1482546551008862,7,2,-5,-10,-4,-2,-2,-6
1482546551008862,-15,4,7,6,3,-2,-11,-8
1482546551009888,0,-4,-13,-1,-5,-3,6,0
1482546551009888,1,-7,29,2,2,-3,-14,-2
1482546551030954,13,10,-13,10,-3,3,13,16
1482546551030954,13,14,12,-3,4,3,28,-3
1482546551032443,-23,-15,-24,-17,0,4,-8,-7
1482546551032443,2,-2,5,4,-1,-3,-4,-19
1482546551044870,-19,-11,-8,-8,-2,-6,-52,-9
1482546551044870,6,-4,1,9,1,1,27,-2
1482546551051891,-1,2,17,6,0,1,32,62
1482546551051891,23,18,-9,-13,1,4,4,-24
1482546551067902,-22,-7,-21,-4,-8,-14,-22,-20
1482546551067902,2,-3,-6,9,2,0,-91,-23
1482546551069885,-1,-6,-2,-17,3,6,89,39
1482546551069885,-6,-18,16,10,1,3,68,48
1482546551090928,18,19,6,4,2,5,16,-4
1482546551090928,7,13,18,-2,-4,-8,-28,-1
1482546551092909,-22,-12,-47,-20,-6,-8,-38,-40
1482546551092909,0,-5,5,14,1,1,-8,14
1482546551104938,9,0,-11,-21,2,3,21,7
1482546551104938,-5,14,1,17,1,0,17,8
1482546551111943,-7,-1,-6,-6,1,-1,-52,-33
1482546551111943,2,-16,15,16,-2,-3,-10,7
1482546551128447,8,5,3,-3,0,2,-23,-12
1482546551128447,-26,-17,21,-5,-2,1,42,18
1482546551129948,12,0,-34,3,1,0,-26,9
1482546551129948,-4,21,-12,-1,0,2,23,0
1482546551150977,20,-12,21,21,10,0,-87,-6
1482546551150977,5,22,4,-7,-4,10,87,89
1482546551151982,27,6,28,5,1,1,-23,11
1482546551151982,-19,3,6,-3,-2,-4,-26,-25
1482546551164987,-10,-19,-9,-2,-1,-1,-20,-6
1482546551164987,-1,-7,-11,-6,2,0,3,-9
1482546551171978,4,-3,6,4,-2,-2,12,-8
1482546551171978,24,10,9,-4,-1,-2,-34,-20
1482546551188005,14,6,-55,-9,-1,4,51,11
1482546551188005,-27,-25,-25,0,-7,-12,1,-10
1482546551190002,-4,14,34,8,-5,-7,-66,-59
1482546551190002,-8,-10,-5,-7,-1,-4,-66,-17
1482546551211022,-10,45,9,-2,-2,-2,37,-11
1482546551211022,8,-14,6,3,6,6,-39,-24
1482546551212008,13,5,-9,-4,-2,-5,-7,-29
1482546551212008,-30,-59,-57,-5,-8,-9,-14,21
1482546551225520,1,5,26,-3,-2,1,60,15
1482546551225520,5,-1,-31,-15,-2,-7,-64,-19
1482546551232072,15,9,23,14,7,11,80,92
1482546551232072,-48,16,44,-4,-2,1,62,0
1482546551248722,11,-17,-42,-15,-8,-7,-4,12
1482546551248722,-5,-15,3,7,0,-4,-69,-85
1482546551249736,2,3,-15,3,2,4,29,22
1482546551249736,22,16,-5,-1,0,-1,-5,0
1482546551271752,-8,10,38,13,4,1,10,18
1482546551271752,1,-7,-27,-1,-2,-2,-6,-13
1482546551273739,-2,-2,2,-4,1,2,-27,-28
1482546551273739,23,18,45,17,4,2,-4,30
1482546551284765,-15,-18,-68,-14,-5,1,8,-14
1482546551284765,-7,-7,46,0,1,0,-20,-5
1482546551291771,-11,-9,-14,1,0,2,44,12
1482546551291771,21,2,-9,-18,0,-4,-9,-58
1482546551307778,1,12,40,1,-6,-8,3,0
1482546551307778,-2,-23,3,9,-1,-1,25,10
1482546551309765,1,31,39,13,4,-1,-33,6
1482546551309765,-8,-6,65,44,7,1,-17,-3
1482546551330891,-4,-8,46,-16,-6,-1,-19,-5
1482546551330891,15,31,23,9,-14,-2,27,1
1482546551332840,-10,6,-72,-123,-16,0,-39,-24
1482546551332840,-25,-44,-91,-20,-12,-12,-10,5
1482546551345025,-4,8,61,-15,-21,-7,-6,-3
1482546551345025,-2,-5,-9,34,13,3,-5,8
1482546551352028,15,21,-30,74,8,4,7,5
1482546551352028,-6,-65,44,-41,-6,-5,-5,-5
1482546551375049,-29,-19,-85,-28,-3,2,16,9
1482546551375049,4,19,16,-17,-3,-3,16,13
1482546551376048,9,-7,-14,19,0,-3,4,-9
1482546551376048,4,24,25,7,3,2,13,8
1482546551390155,-4,-8,20,38,8,0,-34,-29
1482546551390155,-1,-14,-46,-36,-4,-1,13,20
1482546551391114,-5,-16,-12,-9,-6,-8,3,-28
1482546551391114,7,17,-13,12,2,2,-37,-8
1482546551412316,2,-5,15,3,2,4,68,35
1482546551412316,9,46,18,20,6,0,-33,3
1482546551413256,-5,-25,23,22,-4,-1,29,-5
1482546551413256,4,18,-23,24,0,1,-2,1
1482546551435352,-14,-18,-106,-75,-6,-6,-16,-16
1482546551435352,1,-9,14,-5,-10,-8,1,6
1482546551436350,-8,-6,34,0,5,0,-32,-20
1482546551436350,4,13,-44,23,8,10,6,13
1482546551449997,14,9,-15,48,20,7,-27,6
1482546551449997,-1,-10,79,-13,0,4,54,44
1482546551450982,-9,-12,-11,-7,-9,-4,-32,-12
1482546551450982,-1,11,-55,-38,4,0,21,4
1482546551473013,3,5,39,-23,-12,-7,-13,-7
1482546551473013,-7,-9,-62,9,0,1,-20,-11
1482546551473013,-4,25,96,27,12,-1,10,5
1482546551473013,6,13,47,11,-3,4,9,12
1482546551495026,-4,-25,-23,9,5,0,-3,0
1482546551495026,5,6,31,13,-3,-1,-2,-8
1482546551496014,-19,-13,-80,-18,-7,-5,-13,-5
1482546551496014,-3,7,-4,-16,0,-3,22,-4
1482546551510037,3,18,54,65,1,2,-12,-8
1482546551510037,-1,-5,-35,-71,-8,1,12,-7
1482546551511025,0,-6,-4,-43,5,1,-32,-48
1482546551511025,-6,-3,-2,30,12,2,-6,-12
1482546551533070,-9,-3,21,49,-17,-6,51,52
1482546551533070,-4,-16,-55,30,21,3,-2,-10
1482546551533561,4,0,22,2,-8,-4,-1,26
1482546551533561,4,5,-37,-28,-2,9,5,9
1482546551555381,2,5,86,25,9,-5,-15,-23
1482546551555381,-2,-2,-41,1,-8,-5,-28,-11
1482546551556341,-5,-11,-13,-43,-3,1,15,15
1482546551556341,0,-8,-54,18,-6,-6,-17,-10
1482546551570391,5,10,43,45,3,1,-5,2
1482546551570391,-5,-5,-88,-100,-15,-6,-8,0
1482546551571351,4,2,35,0,3,-1,-4,7
1482546551571351,-2,-1,47,48,18,9,33,8
1482546551592408,2,2,-36,-12,3,-1,-31,-24
1482546551592408,4,-12,-21,22,18,7,-26,15
1482546551593369,-1,16,65,-7,-8,3,4,4
1482546551593369,3,2,-54,-27,-13,-9,-7,38
1482546551615382,1,5,12,-9,11,7,80,32
1482546551615382,-3,-4,17,20,-2,2,0,-11
1482546551615382,-1,-7,-23,18,-5,-7,-30,-20
1482546551615382,-3,2,21,-16,-7,-5,-28,-14
1482546551630375,-4,-8,-18,-23,-3,-6,-33,-1
1482546551630375,1,6,31,16,0,1,42,32
1482546551631376,22,6,2,11,-1,4,1,10
1482546551631376,-38,-6,-10,-3,1,-8,-16,-11
1482546551652898,2,8,31,-18,-2,7,71,62
1482546551652898,-9,8,4,7,-1,-6,-53,-15
1482546551652898,20,7,20,17,0,-5,-35,-34
1482546551652898,-3,-13,1,-16,-11,1,35,35
1482546551674911,-5,2,-13,-19,1,1,-49,-23
1482546551674911,-8,-16,23,11,-1,0,22,-17
1482546551675914,20,-1,-22,11,8,3,35,14
1482546551675914,2,30,38,1,4,7,13,0
1482546551689921,-13,-19,-11,-13,-2,-4,-31,-65
1482546551689921,-1,-3,65,9,-11,-10,33,46
1482546551690922,-34,-32,-99,-7,-2,-4,-41,-17
1482546551690922,22,13,32,-19,-3,-3,-26,-7
1482546551712954,-9,-6,-27,-4,-2,-6,-51,-43
1482546551712954,9,9,20,-13,3,9,58,51
1482546551712954,-12,-1,22,-1,-3,-2,-50,-52
1482546551712954,1,-6,-6,-13,-1,1,56,32
1482546551735035,4,6,-16,-18,0,-1,-68,-31
1482546551735035,13,3,6,40,4,4,19,-14
1482546551736034,-8,5,35,12,4,2,-36,-8
1482546551736034,5,-4,-34,1,-2,1,-11,1
1482546551749767,10,-3,13,-12,-2,1,-17,4
1482546551749767,-8,-4,10,-7,-15,-14,-64,-48
1482546551750764,12,10,11,-5,-2,2,63,36
1482546551750764,-17,-12,39,33,19,0,-50,-37
1482546551772784,4,1,-87,-2,-1,12,82,72
1482546551772784,-12,-15,-48,-21,4,-3,-44,-54
1482546551773769,-17,-15,27,3,-18,-14,-29,-20
1482546551773769,5,0,42,0,1,-4,-50,-46
1482546551794850,-2,-15,-36,-30,-1,3,15,12
1482546551794850,6,18,7,12,-24,-7,-29,3
1482546551795811,-1,3,-19,-10,22,5,-10,-51
1482546551795811,5,-13,-14,-40,1,16,85,72
1482546551809859,-10,4,41,28,1,-2,-58,-11
1482546551809859,13,5,-1,13,-1,-4,-48,-31
1482546551810821,22,-1,-2,-9,-4,2,64,75
1482546551810821,-1,-2,5,18,-12,-15,-125,-60
1482546551833350,-7,5,8,5,7,-2,-29,-37
1482546551833350,-12,-9,-18,-16,11,13,112,109
1482546551833845,14,3,6,11,-15,-8,5,10
1482546551833845,-9,-4,-35,1,9,-3,-56,-34
1482546551855588,16,12,7,5,-24,-6,-9,-4
1482546551855588,1,5,23,30,34,1,-33,-45
1482546551855588,-9,-2,-20,-21,5,0,-3,19
1482546551855588,10,-4,26,8,12,10,52,42
1482546551869611,-4,6,-26,-4,-5,-3,-20,-23
1482546551869611,-5,-11,18,44,-1,1,-9,-4
1482546551877617,-7,-7,-11,-38,-10,-3,-3,22
1482546551877617,7,9,20,-4,-14,-10,-10,-23
1482546551892628,-12,-10,26,10,8,-3,-2,-11
1482546551892628,0,5,-16,-21,-9,-4,-17,-20
1482546551893617,8,-9,-31,6,5,2,16,11
1482546551893617,-1,-11,13,0,-4,-4,-1,-18
1482546551914645,17,9,7,6,6,5,-47,-14
1482546551914645,-9,-3,-24,-18,-5,3,61,47
1482546551915640,13,4,12,15,-3,-3,-48,-16
1482546551915640,-20,-4,-8,-8,-10,-10,-38,-31
1482546551929783,16,-5,-16,-10,-2,-2,25,41
1482546551929783,-7,-2,15,-8,-3,-3,-55,-52
1482546551937746,-10,5,-15,18,7,10,67,32
1482546551937746,13,14,12,-3,-7,-5,0,-4
1482546551952333,1,-16,-16,5,-2,-6,-31,11
1482546551952333,7,5,3,-3,1,5,-23,-6
1482546551953330,-3,-4,-90,-2,3,1,8,9
1482546551953330,1,2,44,2,-3,-2,-15,7
1482546551975351,-7,1,0,4,3,-3,-48,-58
1482546551975351,5,3,-60,-23,-3,1,-14,-1
1482546551982356,-1,8,39,54,-4,-5,-11,-10
1482546551982356,-24,6,30,45,-3,-9,10,-6
1482546551989364,-9,-23,-55,-79,2,5,15,-4
1482546551989364,-2,5,60,-14,-18,-10,13,-1
1482546551997366,-13,-15,-27,-50,17,7,-23,-11
1482546551997366,10,6,-33,44,20,14,13,13
1482546552012376,-2,11,54,80,-4,-4,28,11
1482546552012376,-7,-3,23,-15,-7,-6,-16,-5
1482546552013360,-7,-4,15,-5,-23,-13,4,7
1482546552013360,8,-3,-14,-18,-1,-1,6,12
1482546552035414,0,4,-28,-17,8,3,11,4
1482546552035414,7,0,-15,13,9,4,1,5
1482546552036411,-7,10,34,5,2,-1,-4,-3
1482546552036411,1,-10,-45,-28,-3,-5,17,12
1482546552049687,-2,4,32,2,-3,-2,6,4
1482546552049687,-3,2,-14,26,1,-4,-8,-11
1482546552057692,-5,3,22,-4,5,2,3,-4
1482546552057692,-8,0,13,-49,-22,3,1,4
1482546552072702,10,-12,-63,-42,-10,-14,14,12
1482546552072702,-28,-5,-21,-25,7,17,-3,1
1482546552073662,-3,-6,8,39,33,7,-1,-5
1482546552073662,3,-2,-19,19,-19,-6,1,0
1482546552094652,15,4,30,-31,-5,0,8,2
1482546552094652,-6,19,29,19,-9,-5,5,-1
1482546552095680,-2,-3,21,11,-6,-3,-10,-5
1482546552095680,-7,-13,-33,-47,-17,-4,-1,-3
1482546552109729,-15,-1,25,29,8,1,7,1
1482546552109729,21,-3,-4,2,9,-1,-8,-1
1482546552117734,10,9,-7,3,-13,0,0,7
1482546552117734,12,10,18,15,10,0,2,1
1482546552140913,-5,-7,-10,14,-2,-1,6,0
1482546552140913,-10,-12,4,-22,7,3,0,-6
1482546552141895,-2,9,5,19,-5,0,-1,-1
1482546552141895,7,-16,2,0,10,5,8,5
1482546552154920,-2,10,-7,7,0,0,-2,0
1482546552154920,-10,2,-21,-4,-2,-4,-6,-9
1482546552155904,0,-12,3,-16,-3,1,-1,-3
1482546552155904,1,19,15,12,1,0,0,1
1482546552169024,-6,3,17,2,-3,-3,1,1
1482546552169024,9,-4,17,13,-2,-4,-5,-3
1482546552178007,-7,2,-12,-3,-6,-1,1,-5
1482546552178007,-8,6,-37,-19,1,-3,-8,-8
1482546552193017,45,-3,27,31,-1,-1,5,55
1482546552193017,-34,-27,-13,-17,-2,-1,0,-15
1482546552193017,-13,-9,-41,-8,-4,-4,-2,2
1482546552193017,26,31,33,1,0,-1,-5,-10
1482546552215204,-15,10,6,7,-1,2,1,-1
1482546552215204,7,3,-6,1,-1,-2,-1,6
1482546552216147,-14,-20,45,1,-4,-3,0,-2
1482546552216147,4,-4,-39,27,6,-1,-2,4
1482546552229677,-4,-4,14,-30,-3,1,15,-9
1482546552229677,10,4,53,32,3,2,8,6
1482546552237685,-9,11,-49,-16,0,-4,-12,-12
1482546552237685,0,-17,-4,-26,-7,1,6,7
1482546552252804,-9,13,20,14,11,4,-12,-6
1482546552252804,-7,-19,-62,-47,-18,-8,9,-3
1482546552253790,0,-28,-36,17,4,-1,-69,-47
1482546552253790,7,-5,-14,5,1,6,79,49
1482546552274820,-25,-7,-7,-13,-1,0,-7,4
1482546552274820,18,23,24,8,0,-2,-12,10
1482546552275817,-20,-10,42,22,-1,1,11,3
1482546552275817,-18,-17,-18,-16,0,-4,-32,-21
1482546552297838,0,1,10,-23,-1,-1,13,1
1482546552297838,30,6,-46,19,1,1,11,10
1482546552298819,24,30,-1,-47,-4,3,6,25
1482546552298819,-42,-4,16,20,4,1,4,-9
1482546552312848,-3,-27,23,8,-10,-13,-98,-56
1482546552312848,-86,-27,-14,-3,2,5,60,14
1482546552313844,8,-1,32,21,7,4,-3,7
1482546552313844,31,31,9,1,-3,-2,0,-35
1482546552335380,42,-1,-20,6,4,-4,-87,-46
1482546552335380,-1,17,25,6,2,11,44,57
1482546552335877,32,-9,11,-2,-4,-3,-20,7
1482546552335877,-36,0,20,-6,0,2,-1,-11
1482546552358112,12,19,-48,-2,-8,-4,-1,-11
1482546552358112,3,1,32,16,-9,-13,-47,-38
1482546552359063,-14,-7,-16,-22,18,10,49,26
1482546552359063,24,-13,10,-15,-5,4,-28,-5
1482546552373098,2,-16,-3,11,2,0,29,1
1482546552373098,-21,-3,-5,-5,-7,-3,31,32
1482546552373098,16,13,33,5,-12,-11,14,4
1482546552373098,-29,22,83,12,7,0,-19,-3
1482546552395136,-17,-7,-24,-10,-1,1,-23,-48
1482546552395136,7,-32,7,-8,-8,-6,52,23
1482546552396092,-4,21,15,7,-3,-1,-18,-16
1482546552396092,5,-8,-47,5,9,4,21,22
1482546552417274,41,44,43,-3,6,8,-7,12
1482546552417274,-40,-68,-45,-17,-3,0,23,18
1482546552418250,26,24,24,8,-14,-23,-61,16
1482546552418250,-4,-4,-78,-33,-14,-3,96,88
1482546552441328,-15,-5,93,29,12,10,15,-5
1482546552441328,44,-16,-116,-29,-1,-6,-55,-25
1482546552441328,-18,-6,34,19,-2,2,-3,-29
1482546552441328,-9,-13,35,16,-2,-6,-46,-32
1482546552455341,-4,-10,-34,-25,-6,-5,-6,9
1482546552455341,36,38,44,16,4,1,-7,-21
1482546552456338,-29,-19,-13,-5,0,3,7,-26
1482546552456338,18,10,18,11,2,-4,-20,-17
1482546552477343,-21,-8,-32,-7,-1,3,41,22
1482546552477343,-8,10,20,-5,2,-1,-42,-44
1482546552478340,-5,2,20,-8,-9,-4,8,-9
1482546552478340,2,5,-14,-5,0,0,-13,0
1482546552492367,-18,-11,-24,-10,-2,-8,-68,-54
1482546552492367,25,24,58,24,12,14,45,56
1482546552493360,5,7,-30,-26,-5,6,46,62
1482546552493360,30,-24,64,8,2,2,-27,-85
1482546552515481,-59,-10,29,12,-8,-7,26,48
1482546552515481,-25,-1,18,-23,-2,-12,-128,-87
1482546552515481,-19,-11,15,-7,-2,3,48,25
1482546552515481,-4,7,12,1,2,2,-8,41
1482546552537996,11,4,-13,8,-5,1,84,68
1482546552537996,12,10,1,14,8,3,-29,-30
1482546552538496,-13,7,1,-10,6,1,-4,9
1482546552538496,5,11,1,27,-4,-10,-8,-7
1482546552552343,-10,-21,-17,-39,-9,-5,-5,-2
1482546552552343,11,23,-8,-12,13,10,10,24
1482546552553289,6,-4,-38,-22,4,4,-14,-31
1482546552553289,-4,-11,24,7,-8,-1,16,17
1482546552575360,7,11,-6,17,-12,-4,-3,-16
1482546552575360,10,-4,4,15,-5,-5,-11,8
1482546552576304,8,0,-61,-32,1,1,-13,-5
1482546552576304,-10,-11,22,4,0,0,43,27
1482546552597493,8,5,2,49,-2,-2,8,2
1482546552597493,5,15,17,-13,-6,-4,11,-19
1482546552598439,2,-19,11,12,8,3,-63,-17
1482546552598439,7,44,67,-20,-2,0,-9,8
1482546552612505,-11,-46,-18,-11,7,5,25,-3
1482546552612505,0,-56,-1,-31,-4,-4,7,-3
1482546552613478,-22,16,80,3,-17,-6,-1,-6
1482546552613478,8,-11,-42,17,-4,-12,-23,-12
1482546552635221,9,13,-9,5,3,2,6,0
1482546552635221,6,21,15,-4,19,4,-33,-24
1482546552636194,11,-7,-11,27,-2,5,88,55
1482546552636194,-6,-48,-128,-26,-11,-4,-54,-14
1482546552657453,-3,12,-2,3,-1,3,-7,-4
1482546552657453,-4,4,-12,3,-4,-4,-1,6
1482546552658428,5,2,-34,-13,-9,-9,-11,-19
1482546552658428,-12,-2,-19,-6,-2,-6,0,-11
1482546552672408,4,10,0,6,7,3,-5,-11
1482546552672408,1,8,10,17,0,6,13,8
1482546552673408,-4,-10,-13,-1,4,-3,14,16
1482546552673408,-3,2,23,-5,2,1,-26,-10
1482546552695481,3,3,0,-21,-7,-3,1,6
1482546552695481,2,8,12,3,-7,-5,4,-1
1482546552696455,9,13,5,9,8,2,-18,-15
1482546552696455,14,-2,-25,-5,-10,-3,-1,2
1482546552717467,-6,4,26,-34,0,-11,4,6
1482546552717467,-8,-10,-56,-3,-4,7,-3,3
1482546552718441,11,9,28,15,18,6,4,1
1482546552718441,-15,-10,-83,2,11,12,3,-3
1482546552734524,-1,-1,-2,16,-6,2,3,-4
1482546552734524,7,10,48,0,-8,-13,-5,-2
1482546552735029,-9,-7,-25,-15,-11,-8,-13,-13
1482546552735029,1,0,54,4,1,-2,6,-1
1482546552755635,2,-1,-11,-6,-7,-3,-1,0
1482546552755635,1,7,-5,-11,-4,-8,-41,-18
1482546552755635,0,9,-7,31,24,12,73,45
1482546552755635,1,-5,19,-26,2,2,1,0
1482546552777654,4,0,-1,12,3,2,4,4
1482546552777654,-1,6,10,-11,-12,-6,-5,0
1482546552778650,1,-6,-8,-5,-8,-6,-31,-20
1482546552778650,-6,2,76,25,8,6,2,-1
1482546552792664,-4,-2,-70,-46,4,9,12,5
1482546552792664,2,-5,2,7,3,-7,9,1
1482546552793676,0,-9,-6,58,-16,-8,-19,-14
1482546552793676,7,-8,18,-80,0,3,3,2
1482546552814682,15,21,54,19,5,6,-5,0
1482546552814682,-15,-7,-20,-24,8,4,11,2
1482546552815666,-1,-20,-43,-6,-3,-6,-15,-8
1482546552815666,-9,-2,-18,-2,-11,-5,-3,-1
1482546552837719,9,-1,20,12,4,0,2,-1
1482546552837719,8,11,13,13,1,3,7,5
1482546552838702,-5,6,55,-14,0,0,-2,-4
1482546552838702,8,0,-14,16,8,-3,-2,-2
1482546552852813,4,0,39,-1,-3,-5,-6,-2
1482546552852813,5,12,-22,19,-4,0,5,3
1482546552853812,-48,-2,-24,-17,-5,-2,-13,-13
1482546552853812,-7,-19,8,0,-3,-1,-4,-2
1482546552874867,-9,-9,-7,2,3,-2,-4,-3
1482546552874867,10,6,20,-8,0,0,5,1
1482546552875819,5,6,12,-29,1,1,-31,-23
1482546552875819,-6,8,4,17,-5,-4,7,-8
1482546552897886,-4,-6,11,12,-12,-8,9,7
1482546552897886,-3,-7,-10,23,1,1,12,5
1482546552898855,10,1,5,-22,1,5,-17,-8
1482546552898855,-10,2,-20,21,-5,-4,-12,-1
1482546552912896,4,-1,-41,-54,-15,-4,-4,-4
1482546552912896,-1,1,-11,18,16,2,-11,-7
1482546552913839,7,3,57,14,-9,-1,9,7
1482546552913839,-9,-1,-14,-5,-6,-1,-6,-2
1482546552935435,-15,-1,17,58,-3,-3,-8,-14
1482546552935435,-8,-13,6,-87,-14,-7,-13,0
1482546552935927,6,2,0,40,8,0,5,3
1482546552935927,6,9,-12,-19,4,5,30,11
1482546552958062,-3,-2,1,24,0,0,-20,-4
1482546552958062,0,-5,-10,-12,4,2,-10,-9
1482546552958062,-6,-7,-27,-38,-4,0,25,14
1482546552958062,0,4,2,-8,3,-2,-21,-7
1482546552973073,0,-2,-7,17,6,1,20,9
1482546552973073,4,1,20,6,-11,-5,10,4
1482546552973073,4,-3,4,5,2,-1,-2,1
1482546552973073,-1,1,-7,20,8,-1,-3,0
1482546552995187,-5,0,2,-30,2,6,7,4
1482546552995187,-8,-4,-6,28,-3,-1,-3,3
1482546552996159,1,-3,5,17,-2,-7,8,-3
1482546552996159,-2,1,-18,0,4,3,-5,-2
1482546553017200,5,-2,7,-18,5,1,-7,2
1482546553017200,1,1,-1,9,-12,-8,1,1
1482546553018174,4,0,-8,6,0,-3,-21,-17
1482546553018174,-2,1,38,18,10,4,14,14
1482546553032781,-1,-3,-54,-60,-3,-1,14,4
1482546553032781,-9,-12,30,9,-20,-4,0,2
1482546553033769,-2,14,23,-11,9,-4,-3,-6
1482546553033769,-2,-19,-46,19,21,9,8,3
1482546553054736,-7,-8,14,8,2,-1,-13,-5
1482546553054736,2,4,-8,9,0,0,0,-2
1482546553055683,4,4,6,-14,-7,-2,-18,-6
1482546553055683,4,5,-8,-18,-10,0,8,-7
1482546553077713,2,-2,-31,2,7,1,8,12
1482546553077713,-5,-8,20,24,-2,-6,-2,-5
1482546553078702,5,-1,-24,12,0,5,-3,3
1482546553078702,-1,3,3,-61,-7,-3,-12,-7
1482546553092830,0,-2,14,74,-19,-12,-8,-9
1482546553092830,4,6,29,-48,12,10,8,5
1482546553093803,-1,-3,7,20,3,1,2,1
1482546553093803,-4,-4,-51,-22,-12,-6,-3,1
1482546553114846,4,2,-13,-10,3,11,7,0
1482546553114846,-6,-6,-3,4,15,4,-7,-3
1482546553115821,-3,2,-13,-28,-18,-6,-2,-2
1482546553115821,6,1,12,42,6,-4,-2,1
1482546553137885,-3,0,35,5,-4,-3,-7,-3
1482546553137885,-3,0,-41,8,4,0,-3,-4
1482546553138867,5,-4,-4,-23,0,2,8,4
1482546553138867,1,1,25,-2,-16,-5,-4,-2
1482546553151912,-6,-1,-11,-1,1,-5,-3,-5
1482546553151912,2,4,1,12,6,3,1,2
1482546553159903,2,-7,0,-7,-8,0,4,3
1482546553159903,-5,-1,10,19,-1,-5,-26,-17
1482546553174928,0,7,-34,-36,10,6,7,-14
1482546553174928,-4,-6,26,5,-12,-8,-26,-24
1482546553175911,-4,-8,-9,5,-3,-2,-33,9
1482546553175911,1,6,16,13,3,-1,-34,-5
1482546553197982,3,-1,9,-10,5,3,4,6
1482546553197982,-3,-4,-17,-29,-11,-9,-23,-16
1482546553197982,-4,-6,14,36,0,-1,-2,-6
1482546553197982,1,2,-8,-26,0,1,23,10
1482546553220976,1,5,-11,16,-6,-4,-27,-13
1482546553220976,-4,-6,33,-7,2,0,18,10
1482546553221973,-11,0,-40,-4,16,1,6,2
1482546553221973,5,1,19,-20,-5,1,8,5
1482546553235518,20,-1,14,23,11,-1,3,5
1482546553235518,1,3,-16,2,-4,7,3,5
1482546553236017,-3,-1,6,-2,-4,-1,15,1
1482546553236017,-10,-1,-1,0,-7,-2,-7,-11
1482546553257810,-9,-3,10,-5,-24,-9,-5,2
1482546553257810,9,3,2,0,12,1,7,9
1482546553258811,13,2,0,4,7,0,-6,-10
1482546553258811,-16,-4,-4,15,-10,-4,-8,-11
1482546553271876,-3,0,22,4,4,-1,-1,-2
1482546553271876,-1,-7,-34,-10,-17,0,4,4
1482546553279882,-3,-2,11,-9,-3,-1,0,-1
1482546553279882,12,3,-6,1,12,-2,-4,2
1482546553294892,-1,4,-11,-15,1,0,5,3
1482546553294892,-6,2,20,0,3,2,-4,-4
1482546553295867,5,-8,-9,30,-2,-1,-2,0
1482546553295867,0,-3,8,-27,-4,-1,8,4
1482546553317907,-5,-1,7,-9,1,-3,-9,-3
1482546553317907,6,9,-23,19,3,-2,1,4
1482546553318854,-2,-2,49,-3,-1,0,8,0
1482546553318854,-2,-3,-21,14,-3,1,0,0
1482546553332432,-5,0,5,-12,-3,-3,-2,1
1482546553332432,-1,-1,-9,6,3,3,3,0
1482546553340443,-1,5,11,2,-26,-11,-8,-5
1482546553340443,-5,-6,-16,6,55,16,3,1
1482546553355118,1,-1,9,-16,-3,3,6,3
1482546553355118,-1,-1,-4,9,-3,-5,-5,-1
1482546553356117,-4,2,-13,-15,-2,5,-3,-2
1482546553356117,4,1,13,13,-22,-16,3,2
1482546553377202,-4,-6,-4,-3,2,-5,-7,-2
1482546553377202,-5,1,6,-2,1,2,2,-2
1482546553378180,4,1,-6,-7,-4,1,4,4
1482546553378180,4,-2,-2,-3,0,5,5,2
1482546553392239,8,-2,7,3,5,3,-1,-1
1482546553392239,-12,-4,11,11,-6,-9,-7,-2
1482546553400245,-4,-5,-19,-21,3,-1,4,-4
1482546553400245,0,-1,-3,12,-8,0,-2,0
1482546553416228,1,-1,11,5,-5,-7,-6,-2
1482546553416228,5,1,-4,8,-3,2,3,1
1482546553417229,-1,1,-5,-6,9,3,-5,0
1482546553417229,0,4,-9,-7,-5,-1,1,2
1482546553437795,-6,-3,32,38,-20,-3,0,-6
1482546553437795,-4,-7,0,17,18,-2,-4,-2
1482546553438784,4,6,-22,-41,17,8,6,4
1482546553438784,-4,-9,-74,-21,-22,-6,-3,-3
1482546553452310,-5,2,18,14,0,0,-4,-2
1482546553452310,4,3,-6,5,-15,-10,-1,0
1482546553460338,1,1,-3,10,-1,0,-1,-1
1482546553460338,2,0,10,0,15,5,4,3
1482546553475342,-3,-1,-21,-61,-1,3,-3,0
1482546553475342,5,4,0,2,3,4,1,3
1482546553476340,-2,-3,-1,-10,-2,-4,-2,-2
1482546553476340,-1,3,27,13,-7,-4,-2,-2
1482546553497451,-3,-12,-14,7,4,-3,-18,-3
1482546553497451,4,4,15,-8,-1,-1,27,7
1482546553498425,-1,-3,-17,3,-4,-5,-10,-3
1482546553498425,-2,0,21,6,-8,-5,1,-6
1482546553512419,-1,4,-2,4,6,4,7,3
1482546553512419,2,-5,-17,-15,0,0,-12,-3
1482546553520468,-2,0,7,5,-5,0,-1,-3
1482546553520468,-1,2,13,7,0,0,0,1
1482546553535482,5,1,-34,-22,10,1,3,3
1482546553535482,-3,-1,32,5,2,5,-4,-4
1482546553535984,-2,0,4,11,2,-7,-3,0
1482546553535984,4,3,6,27,2,-2,-4,0
1482546553557410,-2,0,5,-26,-2,-5,3,1
1482546553557410,-3,-4,15,18,-8,1,-5,-3
1482546553558383,-1,-1,5,25,-1,0,1,0
1482546553558383,-1,1,-6,-15,-7,-4,-3,0
1482546553581372,2,3,-8,-7,12,10,9,3
1482546553581372,0,1,-46,-31,-7,0,-2,0
1482546553581372,0,-1,13,-18,-5,0,-4,-1
1482546553581372,0,1,7,-12,-3,-1,-1,0
1482546553595444,0,-2,6,40,3,-2,-5,-2
1482546553595444,0,3,-27,-3,-3,-2,-5,0
1482546553595444,-6,-4,38,27,8,1,0,-2
1482546553595444,4,-1,8,-31,-6,1,-3,0
1482546553617423,-1,1,17,1,-6,-6,0,-4
1482546553617423,-1,-3,-5,-9,3,3,-6,-3
1482546553618425,-2,-1,-34,-9,-6,-1,2,-2
1482546553618425,-2,-1,7,0,0,-6,2,-3
1482546553640966,0,3,10,-2,4,2,-1,1
1482546553640966,-5,-7,-2,0,-6,-5,-14,-3
1482546553640966,0,2,35,12,-5,2,25,7
1482546553640966,-2,0,7,23,2,-1,-22,-5
1482546553655102,-1,-2,-22,-6,1,1,35,12
1482546553655102,1,0,-23,-38,4,5,-7,-1
1482546553656094,-4,-2,20,-2,-9,-8,-8,-4
1482546553656094,-3,-2,-42,-18,-3,-2,0,-2
1482546553678134,-2,0,22,24,-5,-3,-10,-6
1482546553678134,-3,-7,-65,-6,0,-1,6,0
1482546553678134,4,2,-9,-16,5,0,-1,2
1482546553678134,1,1,7,4,-3,-4,2,1
1482546553702150,-3,-2,-3,7,-6,2,-8,-4
1482546553702150,-1,-1,18,-7,10,2,4,1
1482546553703158,2,-1,-17,-1,-4,-7,-8,-4
1482546553703158,-3,-4,5,22,8,7,-18,-3
1482546553715186,-4,-2,-3,-14,-1,0,21,4
1482546553715186,0,1,14,18,-6,0,6,2
1482546553716139,5,3,-6,4,1,2,-3,0
1482546553716139,-12,-10,24,-22,-1,-2,4,0
1482546553737685,-3,-1,-4,-9,-2,-9,-20,-10
1482546553737685,1,3,11,5,-3,-1,-2,-1
1482546553738674,-4,6,-22,8,13,6,1,2
1482546553738674,50,14,-2,5,3,2,-23,-7
1482546553760719,-23,-19,17,19,-7,0,53,15
1482546553760719,-24,-14,50,1,-12,-8,-12,-17
1482546553761707,-2,1,7,47,3,-1,-27,-13
1482546553761707,-19,3,-38,-21,-6,-2,46,11
1482546553774711,26,18,-7,-2,1,1,-18,1
1482546553774711,12,3,-4,4,2,-5,-31,-6
1482546553775712,-4,-2,20,6,7,8,-70,-50
1482546553775712,6,2,0,2,0,4,102,83
1482546553805789,4,2,-2,-16,-8,2,-53,12
1482546553805789,-7,-1,28,31,9,2,-16,-5
1482546553806763,0,-3,-31,-26,-8,-4,-3,4
1482546553806763,-3,-2,2,11,6,6,-17,-28
1482546553820797,-4,-4,-15,-31,-5,-10,3,-6
1482546553820797,-1,3,-4,30,-2,-2,9,5
1482546553821774,5,2,-4,-15,-1,-1,2,-2
1482546553821774,-12,-10,7,-6,-7,-6,-46,-20
1482546553835347,-12,-4,-4,4,2,5,44,11
1482546553835347,19,11,-23,-3,7,4,5,5
1482546553836308,20,-4,24,-48,-1,2,41,30
1482546553836308,-23,-5,-28,22,-10,-7,-2,-18
1482546553857413,3,-2,-8,3,0,-3,-57,-13
1482546553857413,-8,-4,20,-9,-5,-2,5,-2
1482546553858414,-7,1,-39,-24,1,-1,-4,4
1482546553858414,2,-1,24,-5,3,3,-12,-3
1482546553880434,13,-6,-17,29,-10,-9,23,-5
1482546553880434,-4,2,-31,-19,-1,0,15,6
1482546553881430,2,-6,10,12,-7,-5,4,9
1482546553881430,-8,3,-33,-47,8,0,-49,-35
1482546553895447,-9,-1,42,14,-3,-1,7,8
1482546553895447,-7,-7,13,-2,-6,-5,3,-22
1482546553895447,-12,-7,-17,-3,-7,-8,0,28
1482546553895447,5,-1,4,23,1,3,-18,-1
1482546553925464,5,6,-15,-11,5,3,-19,-23
1482546553925464,-2,-9,-8,-22,-3,-1,40,32
1482546553926981,1,1,4,-1,-3,-4,-26,-26
1482546553926981,1,-2,32,11,-4,-7,26,10
1482546553940491,-7,-3,-15,-2,5,6,-8,-1
1482546553940491,5,6,18,-4,1,0,-27,-13
1482546553940993,-5,-4,-16,1,-8,-5,6,-9
1482546553940993,1,-7,32,7,-5,-1,-7,12
1482546553955099,-1,-2,-17,-13,-2,-3,-8,-12
1482546553955099,-11,3,-1,-4,4,1,-7,5
1482546553956067,3,-1,-11,-10,3,-1,-20,-12
1482546553956067,-13,-4,3,2,-9,-4,42,21
1482546553978113,-1,1,8,-6,2,-1,-9,-1
1482546553978113,1,-1,-4,10,4,2,5,3
1482546553978113,2,1,0,-3,-6,-1,6,0
1482546553978113,3,-2,-9,14,12,3,-27,-14
1482546554000155,-7,-3,18,7,-7,-6,-6,-3
1482546554000155,16,5,6,-1,-3,1,6,6
1482546554001104,-15,-11,-30,-6,9,0,-7,-7
1482546554001104,4,4,5,-1,0,8,0,-1
1482546554015137,4,-2,-9,-5,0,0,19,9
1482546554015137,5,3,-11,-27,-1,1,-11,-14
1482546554016140,-23,-7,14,47,-10,-2,18,5
1482546554016140,3,1,0,3,1,-1,-52,-41
1482546554037703,-6,4,6,2,0,-4,87,56
1482546554037703,24,5,-4,-3,-4,-3,-104,-32
1482546554038686,-11,-7,22,9,-1,4,107,47
1482546554038686,-2,-1,-6,-9,-1,-3,0,2
1482546554059799,1,0,-6,0,-2,-3,-33,-23
1482546554059799,0,1,-1,5,-3,-1,3,-3
1482546554060782,8,3,-9,-16,-1,-1,-13,-2
1482546554060782,4,15,14,18,8,-2,-7,-3
1482546554074809,-7,-35,-1,-28,-1,5,-12,-9
1482546554074809,-10,-2,-4,-1,-1,-1,20,13
1482546554082815,4,1,-17,-5,-4,-7,-26,-12
1482546554082815,0,-1,-3,-12,-5,0,22,11
1482546554097827,5,8,12,18,7,0,-28,-11
1482546554097827,-7,1,17,5,3,2,19,8
1482546554098823,9,-5,0,-8,-4,0,-18,-11
1482546554098823,9,-2,-10,4,-5,-4,31,10
1482546554120938,-7,3,-15,3,0,3,-10,3
1482546554120938,5,-10,-13,-39,-2,-5,-9,-6
1482546554121889,-2,11,36,58,-4,-2,16,6
1482546554121889,-3,-7,-31,-19,2,1,-10,3
1482546554135455,12,7,14,-15,16,10,-12,-9
1482546554135455,-8,5,22,35,-5,-1,26,12
1482546554135973,3,-15,2,-59,-25,-4,-26,-11
1482546554135973,-2,0,17,67,37,5,0,0
1482546554157145,-7,-2,-54,-21,-13,-8,-1,-3
1482546554157145,4,23,19,9,1,1,0,1
1482546554158134,-4,-24,-31,-13,-11,-8,-6,-4
1482546554158134,-10,12,3,-11,-16,-8,0,-2
1482546554181145,5,1,9,-9,0,-2,-4,-6
1482546554181145,-1,-3,-1,12,-2,-2,6,2
1482546554181145,11,26,31,26,10,7,-3,2
1482546554181145,-14,-52,-18,-50,-18,-9,-13,-13
1482546554194174,0,6,12,21,2,3,4,8
1482546554194174,14,-5,-20,-8,1,0,-14,-6
1482546554202177,-5,3,-2,1,13,3,46,10
1482546554202177,4,8,1,0,3,5,13,12
1482546554217189,-2,4,0,2,-5,-2,-16,-8
1482546554217189,-12,-16,-11,1,-4,-2,7,-3
1482546554218174,10,7,21,-8,7,5,-5,0
1482546554218174,3,-3,-14,40,-3,-7,-13,-6
1482546554240227,-1,2,5,-91,-15,1,8,-2
1482546554240227,-4,-1,34,-4,17,7,3,5
1482546554241226,0,-10,-25,0,-11,-15,-25,-13
1482546554241226,-15,-1,-2,-7,-5,-2,-3,-7
1482546554254426,2,3,-14,33,-7,-5,-50,-17
1482546554254426,-1,2,6,-12,-11,1,53,28
1482546554262457,3,2,16,34,32,9,-9,-6
1482546554262457,12,1,-11,-19,-10,-3,3,2
1482546554277468,0,1,-3,33,-2,-5,4,-2
1482546554277468,-7,-10,-43,-29,-1,-2,-35,-24
1482546554278441,-5,-4,38,-5,-7,-2,-19,12
1482546554278441,2,8,20,37,-4,-3,-2,0
1482546554300472,0,6,16,-6,8,4,-5,-2
1482546554300472,-6,-10,-24,-4,-7,-5,2,0
1482546554300472,0,2,-23,-19,-5,-1,-1,-7
1482546554300472,3,-1,-2,-21,4,3,-12,-1
1482546554314611,-6,0,8,13,1,-5,11,-1
1482546554314611,8,4,-4,22,-2,-4,-10,-4
1482546554322616,-7,3,-11,-22,2,2,-55,-33
1482546554322616,-7,12,3,-8,-9,-6,88,42
1482546554338122,4,-1,-1,13,3,-3,-13,4
1482546554338122,-12,-3,-2,-12,-5,9,21,1
1482546554338609,-6,-1,-1,2,0,0,27,18
1482546554338609,10,10,-2,-5,3,0,-36,-8
1482546554360571,-15,-15,-18,-1,-2,-8,-21,-25
1482546554360571,0,2,13,15,3,-1,28,10
1482546554360571,5,7,-11,-28,-7,-3,17,9
1482546554360571,-3,-2,8,5,-1,1,-28,-16
1482546554374607,5,-1,8,-3,6,1,16,2
1482546554374607,-3,-8,32,39,-4,-9,-13,3
1482546554382612,-4,-6,8,4,3,-2,-31,-15
1482546554382612,2,-3,15,-11,6,10,36,-11
1482546554397624,0,-6,-47,-19,-14,-7,61,43
1482546554397624,0,7,-8,-18,0,-1,6,1
1482546554398599,4,5,0,12,-1,0,8,4
1482546554398599,-2,-6,14,8,10,13,-21,-17
1482546554420613,-1,0,12,1,-6,-5,-25,-4
1482546554420613,-1,-2,-5,7,-2,-2,-3,-7
1482546554420613,-2,-6,-10,-4,-4,-1,25,16
1482546554420613,0,0,4,-14,-6,-6,-10,-6
1482546554434805,3,0,-4,7,5,2,-8,0
1482546554434805,3,-3,0,3,-6,-10,-7,1
1482546554442267,-10,-2,8,7,8,4,0,-8
1482546554442267,-2,0,-19,-22,-7,-1,-11,3
1482546554457484,0,4,22,23,4,2,-4,-4
1482546554457484,4,1,-5,-5,2,2,-8,-7
1482546554458471,4,1,-11,-9,-8,-7,-7,-6
1482546554458471,-3,-3,0,12,0,-3,5,16
1482546554488509,1,0,2,2,4,8,7,6
1482546554488509,-3,-5,-17,-11,-1,-5,14,10
1482546554489518,-3,0,-1,-2,-3,2,-10,-7
1482546554489518,-6,-2,-5,1,-5,-6,-17,-6
1482546554494515,6,-2,4,-16,-3,-2,-7,-5
1482546554494515,1,-2,-16,-8,1,1,-3,-11
1482546554502556,0,-3,18,14,1,0,-12,8
1482546554502556,-1,-4,-21,-32,-3,-3,21,3
1482546554517566,-6,-1,-27,-25,2,-1,-3,-14
1482546554517566,2,7,47,35,-1,0,-6,12
1482546554518512,-4,-12,-14,-9,-3,-1,3,-5
1482546554518512,14,1,9,19,-2,0,-8,9
1482546554540601,-21,-2,-3,11,2,1,12,-8
1482546554540601,-2,2,-19,-23,-2,-5,-93,-45
1482546554541102,-2,-1,-12,-5,6,4,67,59
1482546554541102,-1,-3,1,-15,-4,-1,1,7
1482546554563661,2,-3,-6,1,-8,-2,-44,-19
1482546554563661,-2,-1,-2,-1,0,-1,32,20
1482546554563661,0,3,1,2,-7,-2,-30,-25
1482546554563661,-3,0,-1,-12,-6,-3,-8,-9
1482546554577689,4,1,10,12,1,-6,13,-1
1482546554577689,-7,-5,-5,-6,0,3,2,-2
1482546554578668,6,5,0,12,1,5,9,0
1482546554578668,1,3,-7,-5,-6,-11,15,12
1482546554599697,6,0,19,6,-7,-2,-23,-10
1482546554599697,1,-2,0,-1,5,8,6,-6
1482546554600689,-4,-2,-6,-4,0,0,8,-6
1482546554600689,-3,2,-4,5,3,3,6,9
1482546554622795,-10,0,20,0,-4,-4,-50,-15
1482546554622795,5,0,-27,0,-1,-1,17,8
1482546554623791,27,2,14,-5,-1,1,0,-2
1482546554623791,-4,-4,4,42,1,-3,-18,-21
1482546554637824,9,2,-9,-23,2,0,6,4
1482546554637824,-9,-1,3,4,-2,-1,4,3
1482546554638825,-31,-7,-9,-7,-3,-4,-23,-24
1482546554638825,-1,2,4,16,5,5,9,9
1482546554660027,1,-4,-27,-11,1,1,45,30
1482546554660027,2,3,11,-5,9,4,-3,-7
1482546554661023,6,5,18,21,-5,-5,11,10
1482546554661023,-5,-4,-2,-11,-6,-6,-17,-11
1482546554683147,-6,1,13,16,6,6,12,4
1482546554683147,3,-2,-16,-33,-7,-4,6,1
1482546554684091,2,-1,-12,12,6,2,-21,-9
1482546554684091,-4,-1,-7,-44,-2,1,-14,-7
1482546554698132,3,4,10,1,-4,-1,29,12
1482546554698132,-4,-6,-3,15,1,-3,-24,-9
1482546554698132,-1,1,4,2,1,5,-5,-4
1482546554698132,-2,-3,-8,2,-5,-11,11,9
1482546554720115,1,-3,5,4,-3,-2,0,-4
1482546554720115,2,5,10,13,7,4,-36,-31
1482546554721118,-6,-9,-1,-15,2,10,86,50
1482546554721118,13,0,-24,-10,-4,0,-3,12
1482546554742716,-3,-1,-10,10,1,-3,-13,12
1482546554742716,1,3,2,6,-7,-7,5,4
1482546554743890,-6,0,4,-8,-2,-5,-25,-16
1482546554743890,0,-5,-9,1,0,0,-27,-19
1482546554757904,4,-2,13,-1,5,8,40,11
1482546554757904,-3,-3,-3,3,-7,-7,6,3
1482546554757904,5,2,-13,-6,0,-2,-24,-12
1482546554757904,-1,-1,13,2,4,3,6,6
1482546554779960,-3,-2,-2,0,-4,-3,-19,-12
1482546554779960,-3,-3,0,-5,2,2,5,-1
1482546554780932,1,-1,-6,-3,-5,-10,-5,-3
1482546554780932,-3,2,9,6,1,-3,7,0
1482546554802947,-1,-2,1,4,7,2,-23,-10
1482546554802947,1,-2,2,1,1,3,7,-12
1482546554803948,-1,0,-4,-4,-5,-2,32,16
1482546554803948,-2,0,2,4,-1,5,9,3
1482546554818963,1,0,-5,-7,-7,-8,-5,-3
1482546554818963,-3,-5,2,-2,-6,-9,-9,4
1482546554819960,-3,-3,-6,2,4,10,-19,-15
1482546554819960,0,0,8,6,8,6,-8,-6
1482546554840513,5,3,3,-2,-6,-6,16,4
1482546554840513,13,-4,-9,-6,-7,-5,-5,4
1482546554841010,-23,-5,-9,-1,-2,-4,-13,-10
1482546554841010,-3,-2,-4,-4,4,5,2,1
1482546554863197,-6,-1,29,1,-1,-3,-10,-4
1482546554863197,1,7,1,13,0,1,6,9
1482546554864170,13,18,78,-5,1,-2,-5,1
1482546554864170,-1,-8,0,-6,-6,-5,-10,-8
1482546554877150,-7,3,-28,7,5,6,3,-2
1482546554877150,-11,-11,11,-20,-4,-3,5,6
1482546554878150,5,4,9,4,3,-4,-12,-6
1482546554878150,-2,1,6,-1,-2,-3,-4,-4
1482546554900221,11,3,31,8,0,-4,-3,-2
1482546554900221,-7,-2,-64,-7,-4,2,14,10
1482546554901173,-2,-6,-43,-4,-1,-1,-9,-6
1482546554901173,3,-1,17,-8,-4,-2,-38,-24
1482546554923236,-2,-13,-28,-8,-7,0,15,8
1482546554923236,-14,3,14,10,11,6,19,-7
1482546554924213,6,-1,14,4,-6,-10,-33,4
1482546554924213,7,-2,-28,-6,3,2,45,44
1482546554937774,-19,0,-14,-5,-6,-5,-35,-33
1482546554937774,10,-2,23,-6,-3,-2,-14,-7
1482546554938756,-3,0,5,0,-1,0,13,0
1482546554938756,-10,0,21,13,2,-4,-26,-27
1482546554960370,-1,-12,-62,-8,0,3,31,27
1482546554960370,5,2,13,-9,1,-1,1,6
1482546554960370,4,-1,8,1,3,3,1,-10
1482546554960370,-3,8,43,14,2,1,3,6
1482546554983391,1,-2,-39,-14,2,2,0,0
1482546554983391,-2,0,74,-4,-3,-2,1,2
1482546554984387,-6,0,49,-5,-7,-5,-8,-1
1482546554984387,-3,2,-12,-4,3,1,3,-7
1482546554997493,4,6,36,22,1,0,-6,3
1482546554997493,0,3,-9,12,4,2,-6,-3
1482546554998439,2,-3,-34,-6,-4,-3,-1,2
1482546554998439,-2,-3,12,9,-5,-3,3,-1
1482546555020454,-3,-5,-15,-17,9,6,-8,-8
1482546555020454,3,8,15,15,-5,-4,-5,1
1482546555020454,-3,-7,-46,-4,-9,-6,0,0
1482546555020454,-1,-2,-45,-5,-2,-4,3,-2
1482546555043505,1,0,68,1,3,0,1,2
1482546555043505,3,-6,-95,-22,3,4,0,5
1482546555043505,2,-2,19,7,2,2,0,-1
1482546555043505,-8,-4,-13,3,-11,-7,-8,-7
1482546555057598,2,2,17,-10,-17,-12,-6,-4
1482546555057598,-3,5,107,76,13,3,6,3
1482546555058595,4,-12,-108,-75,-10,-1,0,0
1482546555058595,3,3,85,55,8,2,-3,-1
1482546555079715,-6,-14,-79,-40,2,2,3,3
1482546555079715,-3,1,10,-12,-2,-5,-7,-4
1482546555080688,-1,5,11,19,3,1,1,-1
1482546555080688,2,-3,-1,-18,-3,1,0,-1
1482546555103795,10,9,33,18,1,1,-10,-6
1482546555103795,-18,-6,-14,6,1,3,30,9
1482546555103795,20,-5,-3,-2,-1,3,-12,31
1482546555103795,-24,-7,-20,-14,-2,-12,-58,-79
1482546555118805,-16,2,27,22,0,-3,24,11
1482546555118805,-4,-1,-43,-30,-6,1,-9,-8
1482546555124845,10,4,25,17,1,1,20,6
1482546555124845,0,-9,10,-14,0,0,-15,1
1482546555140398,9,-4,-9,2,-5,-8,-13,-9
1482546555140398,-6,-6,-15,-35,-6,-8,-2,-2
1482546555140882,-22,-3,-18,2,-1,2,-4,-12
1482546555140882,15,10,-2,2,-1,-5,14,21
1482546555163677,2,6,66,16,-5,-2,0,-8
1482546555163677,5,10,-41,-1,4,5,9,15
1482546555163677,-8,-29,13,19,6,0,-11,-14
1482546555163677,-2,-1,-41,-43,9,9,16,7
1482546555176689,8,-6,-18,-2,-6,-4,2,11
1482546555176689,-5,-3,-4,1,-8,-9,-23,-14
1482546555184692,0,12,18,10,-2,5,5,-4
1482546555184692,2,3,10,9,2,-3,12,13
1482546555199647,-3,-5,-17,1,-1,3,-8,-4
1482546555199647,8,4,30,9,5,5,3,3
1482546555200647,-8,-9,-56,-26,-2,-5,-1,-6
1482546555200647,2,0,16,16,24,8,7,15
1482546555223747,1,-1,-14,-12,-9,-7,-11,-8
1482546555223747,-2,-4,15,10,1,0,-7,-7
1482546555223747,-2,9,-1,-3,-13,-1,14,4
1482546555223747,-6,-12,-79,-8,-19,-13,-3,-1
1482546555237283,-2,-2,42,-5,24,4,-5,0
1482546555237283,5,4,-7,16,14,7,6,4
1482546555245408,-2,0,44,-4,-28,-12,-10,-10
1482546555245408,9,13,40,81,63,34,10,9
1482546555260407,-11,-6,-1,-17,-21,-9,-5,-5
1482546555260407,-5,-13,-52,-9,-3,-5,-5,3
1482546555260407,1,9,-47,-8,-7,-3,-10,-5
1482546555260407,5,3,-6,-27,-32,-12,10,6
1482546555283433,6,8,25,33,6,3,-2,-4
1482546555283433,1,-2,35,15,4,6,1,-1
1482546555284432,5,-1,16,-16,17,5,3,-1
1482546555284432,-10,-2,45,1,0,-2,-6,-3
1482546555297439,-3,-6,-62,-27,-9,-5,-2,-5
1482546555297439,8,13,53,18,-28,-13,9,4
1482546555305523,4,1,-55,5,14,4,1,-4
1482546555305523,13,-16,3,-30,-3,11,7,6
1482546555320536,-26,-6,28,34,4,-5,-7,2
1482546555320536,-11,-1,-7,-66,-16,-12,-15,-19
1482546555320536,-3,1,48,89,31,7,0,-1
1482546555320536,3,11,18,-58,-34,-4,7,0
1482546555343182,11,15,15,33,21,7,13,14
1482546555343182,4,-9,34,-23,-27,-5,-10,0
1482546555344253,-10,-7,-32,-4,41,6,6,1
1482546555344253,-3,8,80,70,-2,-12,-4,0
1482546555357262,4,-7,-45,-58,9,13,8,-1
1482546555357262,2,5,33,55,4,-1,-11,-3
1482546555365280,5,8,11,-17,10,6,15,6
1482546555365280,-5,-10,-50,-38,-14,-7,-5,-1
1482546555380292,-3,-1,33,15,-20,-11,-6,-7
1482546555380292,0,-6,-18,7,2,-5,-16,-18
1482546555381278,1,2,6,-28,8,13,32,6
1482546555381278,-2,1,32,1,-17,-9,-10,-4
1482546555402400,21,5,-61,0,20,8,-6,15
1482546555402400,-7,-1,-1,-11,-1,1,9,9
1482546555403377,-19,4,48,39,-64,-27,-23,-13
1482546555403377,-2,0,-75,-34,52,15,7,-6
1482546555417388,-18,-41,-91,-22,-30,-14,-1,-15
1482546555417388,-3,-7,11,20,12,-10,-13,3
1482546555425415,18,26,113,71,-15,-3,6,4
1482546555425415,14,4,-95,-53,56,30,10,16
1482546555440407,-23,-13,-1,4,-52,-7,-15,-18
1482546555440407,1,-2,-96,-56,14,0,10,10
1482546555440923,-1,8,52,71,3,-5,-8,-3
1482546555440923,7,-4,-36,-5,-33,-9,6,-5
1482546555462562,11,14,63,1,2,4,6,10
1482546555462562,5,3,30,24,34,25,18,7
1482546555463513,-15,-31,-70,-61,-15,-21,-32,-7
1482546555463513,-5,-3,58,42,-12,-7,-19,-17
1482546555476573,-2,4,-47,-21,12,4,-36,-27
1482546555476573,4,7,14,13,-21,4,52,32
1482546555485552,-4,-11,2,-32,-27,-10,2,-5
1482546555485552,-6,-7,6,-6,21,3,40,32
1482546555500535,-3,0,-2,-5,34,4,-17,-12
1482546555500535,9,7,-1,-10,1,2,-17,-14
1482546555500535,1,5,-34,-25,-17,1,-8,-1
1482546555500535,1,-4,-1,-2,-13,-9,-11,-16
1482546555522725,-1,-13,46,69,13,-16,-39,5
1482546555522725,-27,-21,-76,-36,-5,-5,38,8
1482546555523676,4,6,22,12,10,4,-12,-12
1482546555523676,5,15,39,14,-28,0,-14,1
1482546555545473,9,0,-6,-8,3,3,14,12
1482546555545473,5,4,3,-4,5,1,5,5
1482546555546423,13,2,42,-9,-4,2,24,7
1482546555546423,-17,-7,-40,-15,-3,-6,-33,-11
1482546555560481,0,9,33,2,4,-3,-32,-28
1482546555560481,-5,-16,-38,-32,-16,-6,59,26
1482546555560481,1,5,21,-2,12,3,-10,-6
1482546555560481,1,-8,24,21,1,-3,12,7
1482546555582498,11,19,31,-7,-44,-5,19,6
1482546555582498,-10,-13,-13,21,48,17,-35,-25
1482546555583443,-6,-6,-35,-3,23,9,-6,5
1482546555583443,-10,-10,-29,-10,-7,-11,8,-2
1482546555605684,-4,7,16,-26,-28,-5,2,-1
1482546555605684,13,19,43,58,-2,-4,-59,-28
1482546555606630,8,1,11,-26,23,11,-4,27
1482546555606630,-10,-6,-9,-11,-33,-16,-44,-29
1482546555619695,4,9,35,13,29,13,83,46
1482546555619695,1,-4,2,-23,-18,-9,-31,-17
1482546555620670,-5,-5,-19,-8,2,3,-10,-7
1482546555620670,18,12,6,1,-8,-2,18,18
1482546555642835,-16,-5,-17,-18,-2,-5,-11,-37
1482546555642835,-10,0,38,13,6,2,3,3
1482546555643325,-4,-3,-41,-5,-10,6,-43,-30
1482546555643325,-11,-2,24,18,-14,-23,54,31
1482546555665718,10,1,-31,13,25,15,23,53
1482546555665718,-3,15,19,3,-3,1,-41,-19
1482546555666709,-2,-3,-40,-52,-4,-11,-4,-5
1482546555666709,-3,-9,13,10,-2,0,-7,23
1482546555679835,-3,-1,-53,-19,5,1,14,14
1482546555679835,1,-6,95,47,-32,-16,2,-3
1482546555680782,-4,0,-8,0,-4,-6,-3,1
1482546555680782,0,5,-8,9,6,2,-25,-25
1482546555702974,2,2,11,-9,-4,-2,-13,-9
1482546555702974,-6,-7,-28,21,5,1,-7,3
1482546555702974,-5,-3,17,-107,-77,-25,-11,-21
1482546555702974,-4,2,14,85,62,33,0,3
1482546555733473,8,11,-9,94,10,3,2,2
1482546555733473,-1,-25,-7,-103,10,4,-7,-14
1482546555734475,-11,-9,-16,100,33,-1,15,12
1482546555734475,3,7,-8,-38,-29,-6,6,-4
1482546555748595,2,2,3,-5,-12,-4,-1,-14
1482546555748595,9,16,16,32,-4,3,7,8
1482546555748595,2,-15,-38,-28,4,-5,8,24
1482546555748595,-34,-20,-8,-17,-13,-15,-42,-47
1482546555762604,-6,3,31,6,8,-3,-19,14
1482546555762604,4,-1,-32,-29,-12,-4,-12,-12
1482546555763594,-1,1,0,8,11,13,22,28
1482546555763594,17,6,2,3,5,7,11,-7
1482546555785618,-4,-7,0,-31,-15,-10,-22,-8
1482546555785618,-2,3,-18,-13,4,0,-4,-5
1482546555786616,2,1,22,14,8,3,9,-1
1482546555786616,-4,-3,4,3,-3,-1,-20,-9
1482546555799629,6,-5,-6,-38,-13,-4,8,-7
1482546555799629,4,4,-30,-3,16,1,7,10
1482546555800611,-2,2,59,27,-4,4,7,-11
1482546555800611,6,-3,19,42,-15,-7,-2,9
1482546555822645,-2,-1,6,-46,-6,-3,2,-6
1482546555822645,-3,-3,-17,60,24,2,8,2
1482546555823643,-4,0,-3,-5,17,5,-11,0
1482546555823643,6,8,-20,4,14,8,-10,-24
1482546555845938,3,-15,25,-6,-19,-8,7,35
1482546555845938,0,6,24,-16,-16,-7,-19,-11
1482546555846910,3,-5,-56,-13,-2,-2,-19,-5
1482546555846910,-10,3,2,-3,-9,-4,-20,19
1482546555859946,10,15,16,13,18,9,-5,-62
1482546555859946,-6,-11,7,-25,-21,-8,-10,-19
1482546555860892,37,1,3,5,2,0,53,32
1482546555860892,-29,6,-27,-38,-2,0,-77,-9
1482546555882965,12,-2,42,32,-3,-4,29,11
1482546555882965,-1,2,-5,11,5,5,26,25
1482546555882965,11,7,-18,-10,-6,-2,-2,-22
1482546555882965,3,-10,24,18,0,-4,25,9
1482546555905979,-11,-4,-15,-47,0,-2,1,-1
1482546555905979,-1,0,-15,4,-7,-4,6,8
1482546555906932,-16,-4,-3,9,5,1,-14,-2
1482546555906932,14,0,-20,-28,-2,2,-19,-25
1482546555919991,-12,-5,1,17,8,7,-20,4
1482546555919991,6,0,-5,10,-12,0,78,58
1482546555920962,-14,-1,6,-29,-10,-8,-9,-6
1482546555920962,-4,-2,-3,-2,2,0,-11,-12
1482546555942997,14,6,-3,11,0,2,1,13
1482546555942997,-1,5,-10,16,-4,-7,-82,-79
1482546555943484,22,-4,7,14,10,5,78,54
1482546555943484,-37,-22,0,-6,-2,5,24,5
1482546555965091,-9,-4,-20,-5,0,-11,13,22
1482546555965091,-2,1,2,-11,-5,-7,-18,-9
1482546555972192,3,6,4,10,0,-1,-35,-14
1482546555972192,25,9,2,-4,-4,-1,10,-23
1482546555980198,1,-3,1,-6,1,4,68,79
1482546555980198,-21,-2,-4,-14,-4,-1,1,-7
1482546555981171,-39,-1,11,9,-4,-8,-51,-44
1482546555981171,-1,-1,19,-12,3,-1,32,29
1482546556002281,-8,-1,-12,14,3,-1,-44,-49
1482546556002281,13,0,2,6,5,3,28,59
1482546556003281,-4,-2,-5,-21,-9,-4,-1,-6
1482546556003281,-3,-11,-9,-9,-6,-2,-4,-5
1482546556026293,0,10,-12,-4,-4,-6,-7,-18
1482546556026293,1,-3,12,1,-4,-6,-13,-8
1482546556026293,-11,-8,1,7,12,7,-18,-16
1482546556026293,18,17,-44,2,-2,2,78,58
1482546556040334,-1,5,18,1,-3,3,-24,-26
1482546556040334,-1,-1,2,6,7,6,6,4
1482546556041322,-5,0,-3,-31,-3,-6,-17,-8
1482546556041322,10,4,40,36,5,4,-24,-33
1482546556062946,0,6,4,-55,-11,5,51,42
1482546556062946,-7,-12,-20,57,-1,-1,-35,-34
1482546556062946,8,3,31,-22,22,9,28,21
1482546556062946,0,-5,-51,-17,-15,-7,-4,-2
1482546556086065,-8,-4,16,17,-2,-6,-25,-26
1482546556086065,0,-14,-19,-12,-10,-6,4,12
1482546556087017,6,1,-6,16,-17,-5,0,11
1482546556087017,2,1,23,6,12,-3,-1,4
1482546556099074,-1,11,-29,-55,4,8,-13,-17
1482546556099074,-4,-16,-6,26,-17,-3,-1,3
1482546556108055,-1,3,8,21,5,-5,0,0
1482546556108055,3,-7,0,-17,-2,1,42,8
1482546556123065,-5,-3,-16,11,0,6,7,11
1482546556123065,10,7,9,-13,9,2,-20,-11
1482546556123065,-8,-13,-8,-9,-17,-4,-8,-2
1482546556123065,7,5,9,0,-5,-3,-7,4
1482546556145833,16,1,-2,32,19,3,-12,-10
1482546556145833,-20,19,8,-14,2,-2,-4,-3
1482546556146823,11,-11,-10,1,-7,-1,8,-6
1482546556146823,-13,-2,-4,-14,-7,0,-13,4
1482546556159888,-12,-30,4,8,2,-4,-24,-18
1482546556159888,-5,17,0,-33,-8,-3,7,5
1482546556167860,5,-9,-9,10,2,0,-9,-11
1482546556167860,-9,15,6,11,8,1,7,11
1482546556182900,17,-3,0,12,-6,-3,-11,-7
1482546556182900,-19,-1,-3,-29,-5,-2,7,0
1482546556183849,7,0,4,2,-3,-3,-2,1
1482546556183849,7,-17,-14,-11,-3,-2,-19,-14
1482546556206860,-18,4,1,18,3,1,1,-2
1482546556206860,19,3,-8,-5,4,1,2,2
1482546556207861,-9,2,4,7,-2,0,-1,-3
1482546556207861,8,10,0,-3,10,3,0,5
1482546556219869,-2,-16,-5,4,-4,-4,-1,-3
1482546556219869,6,0,15,2,4,1,8,5
1482546556227932,-3,11,-20,3,-1,2,-5,-3
1482546556227932,-5,-9,14,-2,-1,-1,-2,0
1482546556242910,4,5,-10,3,0,-2,0,0
1482546556242910,-2,-8,47,4,4,5,0,-7
1482546556243409,-3,4,-34,-5,15,5,-1,3
1482546556243409,-14,-2,28,-1,-11,-4,-8,-3
1482546556265956,-3,-3,-12,10,-3,-3,8,-4
1482546556265956,7,-8,1,-34,-5,2,-2,-4
1482546556266942,20,13,26,9,-8,-13,7,20
1482546556266942,-25,-20,-23,-7,-4,1,-2,-5
1482546556279963,-8,-4,24,-1,2,0,-2,0
1482546556279963,8,5,0,21,3,-1,-1,-4
1482546556287960,-10,-2,-19,-10,-1,3,-5,-8
1482546556287960,7,4,-5,-8,0,0,6,2
1482546556302967,4,6,51,36,1,-1,-4,3
1482546556302967,-8,-4,-49,-36,-2,-3,-5,-5
1482546556302967,-8,-4,23,27,1,-4,-13,-8
1482546556302967,1,-16,-68,-50,-12,9,3,4
1482546556325997,-2,-3,1,2,-4,-13,-3,-6
1482546556325997,6,10,6,-14,2,0,4,10
1482546556325997,-3,-1,11,8,2,5,-4,-5
1482546556325997,7,8,16,18,2,-2,0,0
1482546556339515,-5,8,-40,-15,-6,2,-2,-2
1482546556339515,-1,-5,-16,18,-3,0,-5,-5
1482546556347220,3,-10,-21,-20,-16,-17,2,-2
1482546556347220,-4,11,22,9,-3,2,-17,-4
1482546556362255,2,-8,16,-5,12,10,-2,-6
1482546556362255,-5,-16,-36,15,3,-2,38,37
1482546556363200,12,12,64,-4,1,3,-73,-52
1482546556363200,-6,10,5,6,-4,1,71,49
1482546556386247,-18,2,-27,-18,1,0,-4,-3
1482546556386247,1,12,67,25,0,-1,-6,3
1482546556386247,-17,-51,-115,-40,-12,-7,-11,-15
1482546556386247,24,-23,5,9,4,-4,-18,-13
1482546556399253,0,15,27,2,-3,10,-24,-26
1482546556399253,0,-10,-58,-16,-6,-13,23,37
1482546556407285,-4,11,45,28,8,14,30,24
1482546556407285,2,10,-25,-7,-4,-16,-69,-44
1482546556422297,0,-12,-7,9,-1,6,40,18
1482546556422297,1,-6,16,6,4,8,-21,-17
1482546556423242,18,9,16,-2,-8,-6,19,9
1482546556423242,1,17,18,27,2,-1,-11,-1
1482546556444297,-1,-14,-36,-17,8,6,-13,-2
1482546556444297,6,7,-11,-9,-4,1,-1,-12
1482546556445736,6,9,13,8,9,3,-36,-25
1482546556445736,-8,-4,13,-5,-6,5,96,70
1482546556468754,11,28,52,7,-9,-11,-7,-11
1482546556468754,-3,-35,-31,-6,-1,-2,-7,17
1482546556468754,-7,-11,-29,-4,4,6,50,18
1482546556468754,32,51,93,18,11,2,-44,-3
1482546556482791,-47,-63,-106,-20,-5,0,78,32
1482546556482791,-38,7,93,-3,-4,-7,-23,-55
1482546556483733,-29,14,40,9,-6,-7,-36,-19
1482546556483733,-2,-3,-20,-11,0,-1,68,19
1482546556505805,40,19,11,8,5,6,-20,17
1482546556505805,10,6,-37,-2,-2,-1,-39,-19
1482546556506750,-4,-12,-24,1,2,5,-23,-7
1482546556506750,-22,-1,-7,-8,-14,-21,-105,-41
1482546556535889,5,10,53,-1,-9,-10,55,28
1482546556535889,8,14,27,20,3,12,37,42
1482546556536860,1,0,3,6,15,8,2,11
1482546556536860,15,-24,-64,-32,4,0,-27,-38
1482546556542930,-1,-3,16,-3,-6,-5,-43,-24
1482546556542930,6,10,9,-10,-10,-9,6,-5
1482546556543425,8,3,-1,8,-8,-8,-6,10
1482546556543425,-6,-9,33,29,19,14,48,22
1482546556565706,-7,-12,-24,-22,-16,-5,-47,-21
1482546556565706,5,1,-35,-2,3,-1,55,14
1482546556566683,7,3,13,26,8,6,-3,-12
1482546556566683,2,4,8,-15,-6,-3,-12,-12
1482546556588668,0,18,-40,13,0,0,-14,-10
1482546556588668,21,-13,-6,-7,-8,-10,-39,14
1482546556588668,12,-14,61,-12,-3,8,120,112
1482546556588668,-14,15,-11,4,-3,-2,2,42
1482546556602733,-27,-2,-11,3,2,-3,-2,-59
1482546556602733,3,-2,15,-9,-1,3,-9,1
1482546556603706,-8,-5,2,1,0,-6,-59,-26
1482546556603706,44,-4,0,-3,-3,0,-5,-5
1482546556625750,-14,-6,18,-5,3,1,-26,55
1482546556625750,-2,5,-54,19,1,-4,-29,-58
1482546556626696,0,4,-6,11,-1,2,13,-9
1482546556626696,-9,3,-31,-5,2,2,7,-6
1482546556648456,-5,-6,-38,-45,-2,-5,-34,-31
1482546556648456,-7,21,103,5,-2,-1,-2,-5
1482546556649442,-31,-33,-114,7,-23,-19,-31,-22
1482546556649442,-7,-12,-5,-55,0,4,1,-19
1482546556662465,18,14,41,24,-4,-8,-4,28
1482546556662465,3,0,3,15,13,15,3,0
1482546556663453,-9,9,-30,-11,13,15,67,33
1482546556663453,-9,-6,73,33,-1,-2,-81,-51
1482546556685522,20,10,-3,22,12,2,68,34
1482546556685522,5,-14,-49,-69,-13,-10,-14,42
1482546556686466,-2,8,43,52,-1,5,-23,-25
1482546556686466,-3,-6,-61,-44,-3,3,32,2
1482546556708540,-2,-9,18,5,-7,-7,-32,-12
1482546556708540,4,13,0,1,1,-1,-17,-37
1482546556709487,12,-3,-33,-39,7,-8,-8,-16
1482546556709487,-23,2,61,49,12,4,6,4
1482546556722503,1,-21,-87,-20,-7,3,-3,-14
1482546556722503,-8,5,28,-2,3,-1,22,21
1482546556723506,7,-1,-2,-5,-10,-12,-96,-85
1482546556723506,-27,13,11,9,-3,6,48,19
1482546556745690,31,-11,25,-10,0,-6,-33,5
1482546556745690,-18,-6,-7,18,1,1,-12,-50
1482546556746673,17,0,-6,-52,-10,-11,-20,16
1482546556746673,-15,-10,-16,56,1,-2,45,-10
1482546556768723,-1,9,22,-16,1,-2,7,-9
1482546556768723,10,-9,0,21,-2,2,-4,15
1482546556768723,0,18,49,9,2,6,35,45
1482546556768723,-5,4,-13,-5,-1,-7,-86,-81
1482546556782714,-15,-21,-10,-14,-1,8,73,100
1482546556782714,-8,0,4,17,3,-3,-29,-8
1482546556783701,-6,-6,19,3,-12,-9,-3,24
1482546556783701,34,8,11,-31,0,3,-79,-43
1482546556805714,9,-15,-11,43,-6,12,75,72
1482546556805714,-67,-11,9,-31,-7,-13,-27,-19
1482546556806729,-4,12,-48,-78,3,2,-51,-64
1482546556806729,38,5,25,-5,1,3,41,17
1482546556828761,-18,-21,50,96,-2,-20,-116,-77
1482546556828761,14,-21,-54,-26,-15,20,67,-17
1482546556828761,-16,9,39,58,2,-15,44,-3
1482546556828761,-20,4,-37,-42,-4,-12,-6,11
1482546556842834,3,19,1,-6,6,-2,-4,-55
1482546556842834,1,-7,1,27,6,2,12,22
1482546556843783,-12,0,-8,-13,0,4,-31,25
1482546556843783,1,-6,-8,14,-14,-8,-4,-2
1482546556866011,9,41,61,-18,-6,-4,-33,-46
1482546556866011,16,5,-71,-8,1,0,-23,-22
1482546556866977,21,14,43,27,-2,7,36,24
1482546556866977,-24,-45,-39,-22,3,-5,-26,-3
1482546556888027,18,13,14,2,-2,6,40,44
1482546556888027,3,5,32,-4,-1,-13,-56,-63
1482546556888975,7,8,25,18,3,4,24,-17
1482546556888975,0,-2,-26,1,-3,3,28,21
1482546556902001,-18,-5,-7,-26,9,-2,1,-23
1482546556902001,9,-12,-45,28,-13,-1,31,24
1482546556910045,-2,-14,23,-3,-3,-4,-61,-64
1482546556910045,-14,-5,-3,16,8,4,15,-19
1482546556925057,18,7,37,-8,5,-8,-128,-53
1482546556925057,20,9,-1,8,1,-4,70,60
1482546556926029,5,-13,-31,-29,-1,2,6,-40
1482546556926029,-4,-3,-3,-5,-2,4,-15,43
1482546556947853,-10,10,61,8,1,2,9,-18
1482546556947853,-11,-4,-45,7,-6,-5,-32,-1
1482546556948850,3,4,-9,-4,1,-2,-16,-13
1482546556948850,39,20,22,-24,-12,-7,9,9
1482546556963846,-24,-16,-45,-23,8,3,26,12
1482546556963846,-11,-1,46,-23,5,10,-32,-4
1482546556969870,-14,-7,-47,25,-4,8,51,37
1482546556969870,8,13,60,53,6,-1,3,-25
1482546556985978,-24,-35,-82,-69,-18,-1,45,48
1482546556985978,30,14,108,41,-2,-7,31,-5
1482546556986950,-22,-12,-61,22,16,-2,-28,29
1482546556986950,-10,-8,-88,-23,-24,-12,-12,6
1482546557007964,-6,7,-59,-47,5,6,-62,-92
1482546557007964,-8,-15,69,38,-3,-4,-100,-15
1482546557008965,3,-7,-73,-63,-7,0,35,17
1482546557008965,-29,5,48,38,6,1,-1,-20
1482546557021946,-5,6,47,13,-1,4,25,-17
1482546557021946,-9,8,-44,-13,8,6,-20,14
1482546557030513,15,2,10,-60,2,-1,74,61
1482546557030513,16,0,-16,28,4,13,90,46
1482546557046140,9,0,82,21,-9,-9,-4,-7
1482546557046140,-18,16,7,16,1,-5,-2,-17
1482546557046140,21,-3,-4,12,-8,-2,-48,-48
1482546557046140,14,-7,9,-26,-9,-7,-61,-27
1482546557068232,-18,-3,-39,-13,3,5,56,46
1482546557068232,12,7,2,-18,1,2,9,5
1482546557069231,-8,-2,13,43,-2,-2,-7,9
1482546557069231,-3,5,20,-57,-6,-6,-24,-21
1482546557082267,35,7,27,55,1,3,-50,-28
1482546557082267,-19,-27,-94,-12,-10,-1,30,-55
1482546557090275,-11,-18,88,88,-5,-7,58,57
1482546557090275,27,14,-59,-18,16,13,6,-5
1482546557106258,-1,-9,95,63,-18,-18,-74,-76
1482546557106258,-4,-31,-90,-12,10,2,74,64
1482546557106258,3,22,14,-10,4,4,-23,-19
1482546557106258,-26,-23,-37,-4,-9,-11,4,3
1482546557128247,31,20,-67,-26,18,17,95,106
1482546557128247,-3,-7,20,-45,-3,1,-43,-45
1482546557129244,11,15,28,0,-7,-3,30,10
1482546557129244,45,5,-6,-16,0,-1,24,29
1482546557142340,-42,-7,-18,12,-1,-4,-26,-36
1482546557142340,-10,-3,37,11,10,8,35,95
1482546557150054,-17,-6,-6,-24,-14,-10,-25,-28
1482546557150054,22,2,13,-1,14,10,-9,27
1482546557166090,8,-3,-41,-21,0,0,11,-2
1482546557166090,-1,22,94,41,-22,-16,-71,-42
1482546557166090,3,-16,-29,-28,6,4,19,29
1482546557166090,-22,-3,28,14,7,1,-23,37
1482546557188171,-9,2,-18,14,-5,-4,24,-70
1482546557188171,56,12,0,-21,-2,-1,13,23
1482546557189168,-11,15,0,7,20,3,-39,-28
1482546557189168,-28,-26,31,36,-30,-9,-29,-29
1482546557202234,-8,5,38,-33,18,2,9,36
1482546557202234,6,7,-40,16,-6,-6,5,6
1482546557210240,42,15,37,38,0,4,2,-8
1482546557210240,-47,-10,-15,-60,-5,-6,-41,-50
1482546557225212,-6,-5,-47,-24,-7,-4,-44,-8
1482546557225212,-9,-8,32,-14,-1,2,82,91
1482546557226209,5,-15,-84,-4,12,2,-24,-4
1482546557226209,4,12,35,57,-3,-7,-27,9
1482546557255333,7,-1,58,-7,-5,0,2,26
1482546557255333,-29,-4,-83,-42,0,-5,-39,-48
1482546557256331,-23,-4,13,-15,-1,-2,-12,-16
1482546557256331,6,-9,6,21,4,2,25,31
1482546557262379,17,8,-13,-19,-3,-2,-4,9
1482546557262379,32,25,34,33,13,5,-75,-84
1482546557270440,-18,3,38,-22,-6,0,9,33
1482546557270440,-30,-32,-42,-33,-7,-10,28,43
1482546557285450,4,2,-40,38,-15,-10,3,-40
1482546557285450,-10,-10,16,-90,-13,0,-35,-47
1482546557285450,-1,2,15,-12,5,3,7,-7
1482546557285450,29,17,16,31,28,11,0,-7
1482546557308440,0,6,20,25,-3,1,-1,24
1482546557308440,-11,-28,-59,23,-3,-8,-2,-2
1482546557309412,5,3,18,15,-10,1,2,4
1482546557309412,-22,14,1,-5,-9,-2,27,-5
1482546557321477,-6,-15,-17,-24,0,-2,4,42
1482546557321477,-6,13,18,26,12,3,16,-12
1482546557330512,2,-14,-31,-5,-6,3,17,7
1482546557330512,1,19,78,5,7,0,-38,-38
1482546557345499,2,-2,-41,-3,0,2,23,-3
1482546557345499,2,4,42,7,0,-2,15,19
1482546557346016,5,-8,-26,-17,-12,-8,70,40
1482546557346016,-22,-9,-58,-3,-6,0,-9,-16
1482546557368049,-1,8,54,20,8,0,2,-11
1482546557368049,-11,-24,-86,-18,-7,-1,17,37
1482546557369045,-2,-2,50,20,0,-6,-57,-44
1482546557369045,6,1,29,-13,-7,3,-1,-6
1482546557391071,1,-3,-10,-23,-27,-11,-6,11
1482546557391071,3,-5,-17,72,78,23,-6,-10
1482546557391071,-8,17,28,14,-9,5,-19,-10
1482546557391071,7,-26,-76,-23,-13,-13,6,4
1482546557405111,1,4,16,32,-1,-2,-9,2
1482546557405111,3,5,64,-33,-17,-11,-53,-45
1482546557406087,-3,-8,-17,-19,2,6,22,20
1482546557406087,8,25,49,0,4,-2,20,3
1482546557428100,8,10,48,14,4,3,-20,-14
1482546557428100,-10,-14,-56,-42,2,2,-6,-10
1482546557429101,0,12,19,7,5,-2,-24,-16
1482546557429101,-4,-12,1,-4,-11,0,-7,-9
1482546557450755,-2,-2,-28,-4,10,1,-13,-2
1482546557450755,2,6,26,-4,-20,-6,3,21
1482546557451754,-6,-4,0,-7,-28,-13,-7,-8
1482546557451754,6,-4,16,43,4,7,9,2
1482546557472772,-1,-9,-63,-108,3,3,-5,-1
1482546557472772,1,8,62,65,-7,-1,7,2
1482546557473768,-4,1,-32,-27,-4,-3,-22,-15
1482546557473768,-2,-8,-7,8,-3,-12,-7,-10
1482546557487781,4,8,-7,17,-17,-3,4,11
1482546557487781,-3,-4,-9,-33,35,13,12,6
1482546557488781,-6,-5,-13,-17,1,9,2,-1
1482546557488781,2,-4,-11,-5,0,2,2,-1
1482546557510799,-5,-7,11,14,1,0,-5,-2
1482546557510799,3,3,15,-34,-25,-17,7,6
1482546557511795,-5,-12,-27,39,13,-5,-17,-14
1482546557511795,1,-1,-11,-35,-5,-1,-3,-2
1482546557524809,4,2,-6,33,11,3,4,6
1482546557524809,0,1,-5,-10,-9,1,4,1
1482546557525806,1,1,26,21,34,6,-1,2
1482546557525806,-2,-6,23,15,-6,0,-1,-3
1482546557547928,-2,-20,-69,1,-8,-5,2,14
1482546557547928,-2,4,33,-1,-13,-6,6,19
1482546557548926,-10,-5,-10,-5,-6,-2,-12,-28
1482546557548926,3,8,33,21,14,3,1,-1
1482546557570945,-5,-4,-19,-3,5,3,-5,-20
1482546557570945,-5,-13,-83,-10,2,4,6,1
1482546557571927,-2,1,34,-12,-20,-13,-7,2
1482546557571927,3,8,-10,0,-5,-2,-3,6
1482546557584955,1,-4,53,60,21,9,2,-2
1482546557584955,2,13,19,-18,-8,-15,0,-5
1482546557585937,-3,-4,3,-3,-17,-4,-3,1
1482546557585937,-1,-4,-64,-14,27,7,4,-4
1482546557607971,-2,0,3,-45,-47,-6,-5,5
1482546557607971,-1,1,27,44,61,23,7,3
1482546557608967,-2,-13,-78,9,-11,-8,-7,-12
1482546557608967,6,9,24,-32,-14,-11,-7,3
1482546557630987,-3,1,5,-10,-2,5,-4,-4
1482546557630987,-8,2,9,21,-10,-4,5,-3
1482546557631968,15,7,28,-39,-2,-8,-1,2
1482546557631968,-10,-1,-12,14,2,9,1,0
1482546557645485,-7,-5,-2,-1,-1,-15,-3,0
1482546557645485,4,1,-25,-23,-12,2,1,0
1482546557645986,-2,2,46,45,25,9,0,4
1482546557645986,2,10,64,-6,-15,-12,1,-3
1482546557668183,0,-3,-62,-75,9,11,2,3
1482546557668183,-1,-15,-1,10,21,9,0,1
1482546557669157,-6,-1,-42,-36,-8,2,4,1
1482546557669157,-4,-8,20,33,-4,-7,-5,-7
1482546557691174,0,4,9,24,1,-7,0,0
1482546557691174,4,3,-37,-31,-8,-3,-5,-6
1482546557691174,4,2,22,13,6,2,-8,-7
1482546557691174,1,-5,29,-36,3,6,18,4
1482546557705209,1,-17,-40,13,-12,-14,-25,-7
1482546557705209,-23,-2,14,16,-7,-5,21,-6
1482546557706162,-2,0,-13,-1,-5,1,-13,-3
1482546557706162,-1,2,20,24,1,0,-10,7
1482546557728173,1,10,-3,-13,14,7,11,12
1482546557728173,7,-1,20,4,-19,-5,-25,-9
1482546557729200,-3,-4,-1,-3,0,0,27,25
1482546557729200,0,-3,-57,-12,4,-1,0,-7
1482546557751299,1,0,31,11,-8,-7,1,-2
1482546557751299,2,-2,6,-6,17,13,-8,1
1482546557751299,2,10,1,-17,10,3,3,-1
1482546557751299,-3,-11,-93,-19,11,16,-3,-13
1482546557765327,-2,-15,39,21,-5,-10,-2,12
1482546557765327,0,7,7,2,-37,-26,-2,-2
1482546557766324,0,1,-31,-54,10,12,-2,0
1482546557766324,1,0,40,37,-2,-3,-1,0
1482546557788343,-2,11,52,33,8,0,-5,-10
1482546557788343,-2,-6,-42,-23,-12,-3,1,-5
1482546557789332,1,-6,-20,3,5,-3,4,3
1482546557789332,4,0,-48,1,2,5,-4,3
1482546557810359,-11,-10,20,12,-13,-9,-7,-18
1482546557810359,5,5,28,-17,-18,-4,6,5
1482546557811342,-1,-3,-17,36,24,8,-11,-10
1482546557811342,5,6,-19,-50,3,3,-13,-21
1482546557825410,-7,-5,12,39,3,-7,-32,4
1482546557825410,0,-2,6,-22,-11,3,2,17
1482546557826358,-7,-5,14,3,-9,-1,-27,-22
1482546557826358,-4,1,5,11,0,-5,7,5
1482546557848530,3,4,-18,-25,2,-4,-16,-8
1482546557848530,-1,-2,1,-2,5,6,-10,-11
1482546557849517,1,3,7,15,-6,-4,21,18
1482546557849517,-1,-2,33,12,-1,0,-30,-21
1482546557870544,5,10,-31,-2,8,9,18,3
1482546557870544,0,-4,16,2,2,0,2,4
1482546557871542,0,0,-3,-32,-5,-1,3,-2
1482546557871542,-3,4,55,7,-7,-6,2,7
1482546557885566,-3,-8,-93,-46,-11,4,9,0
1482546557885566,4,7,2,68,31,6,18,9
1482546557885566,1,2,21,-48,-11,-6,-20,-11
1482546557885566,-8,-6,25,40,-11,-2,4,8
1482546557908650,15,9,2,-13,-1,-3,20,11
1482546557908650,-9,-6,-10,-16,0,-3,-28,-18
1482546557908650,0,2,1,20,-8,-5,-2,1
1482546557908650,6,2,-24,5,-1,2,13,13
1482546557930643,-18,-2,14,6,10,18,7,0
1482546557930643,-5,-2,10,-12,-21,-21,-6,-7
1482546557931640,4,-1,14,9,-5,-4,-9,-3
1482546557931640,-10,-3,-20,5,-1,-2,9,-1
1482546557945173,3,4,3,-33,-2,4,-3,2
1482546557945173,5,3,5,6,5,5,4,1
1482546557946173,-3,-2,-7,0,-6,-2,45,20
1482546557946173,0,-7,-31,-13,8,-4,-26,-12
1482546557968163,2,5,47,-3,-8,-5,-10,-8
1482546557968163,-4,-8,-32,22,-18,-10,0,0
1482546557969108,-6,-10,-19,-22,50,16,-10,-7
1482546557969108,1,0,30,31,-19,-7,-1,-1
1482546557991166,1,3,7,14,9,3,18,2
1482546557991166,1,2,-23,-25,-5,-2,-2,2
1482546557991166,0,1,22,18,-21,-11,-7,-5
1482546557991166,-4,-11,-19,-40,-2,0,-5,1
1482546558004160,-1,6,42,33,12,3,-1,-1
1482546558004160,5,7,25,10,4,7,14,6
1482546558012166,1,2,67,43,-3,-2,10,2
1482546558012166,-2,-6,11,-36,0,-6,-62,-24
1482546558028205,1,-4,-13,-22,-4,-3,-18,-14
1482546558028205,-7,-5,67,4,3,-3,36,59
1482546558029152,15,5,6,55,1,3,-12,2
1482546558029152,-17,6,6,-19,-1,4,-1,-14
1482546558051201,4,-2,-21,-2,-5,-7,7,13
1482546558051201,-3,-4,-12,8,9,1,-41,-38
1482546558051201,-2,-3,-34,-30,-11,-4,-16,2
1482546558051201,7,1,-17,-19,-1,1,30,25
1482546558064212,-4,4,-3,5,20,12,-17,-19
1482546558064212,6,10,-13,53,-4,-8,-14,-17
1482546558072217,-5,-8,10,-47,-18,-3,59,31
1482546558072217,4,-3,-25,26,-5,-6,4,-2
1482546558088230,-3,1,21,-34,15,8,25,15
1482546558088230,4,2,6,-4,8,5,-17,-14
1482546558089216,-5,2,-32,-9,-8,-1,-10,-8
1482546558089216,1,-1,71,50,4,-5,3,10
1482546558111243,3,1,-19,3,-2,0,-3,-4
1482546558111243,-1,0,34,15,-5,-3,3,5
1482546558111243,-1,11,22,-13,-7,-6,-20,-12
1482546558111243,-4,-25,-99,-34,1,1,17,8
1482546558124253,-4,-6,-14,2,-8,-7,-11,-5
1482546558124253,0,2,-13,-16,3,5,-3,-9
1482546558133766,-4,1,11,1,0,-4,6,-1
1482546558133766,10,16,19,-1,4,0,-94,-30
1482546558147949,5,-2,14,13,4,10,89,38
1482546558147949,3,-9,10,-32,-21,-11,57,22
1482546558148936,-17,-3,-12,13,-8,-15,-16,10
1482546558148936,4,2,-8,7,15,18,14,9
1482546558170956,-3,-6,-2,-9,-6,-7,-33,-19
1482546558170956,6,2,-12,8,7,8,-28,-6
1482546558171978,0,-8,8,2,-4,-5,-14,-17
1482546558171978,1,7,21,8,-8,-12,22,5
1482546558193019,-7,-22,-55,-28,-12,-4,-32,-6
1482546558193019,-3,1,-31,-25,-3,-1,2,5
1482546558194972,0,-2,0,57,5,-1,-16,-4
1482546558194972,2,4,-2,-24,4,10,21,8
1482546558207016,2,3,21,28,-3,-8,6,0
1482546558207016,-4,-3,29,7,-12,-5,-25,-17
1482546558216104,-6,-9,-34,21,20,10,17,4
1482546558216104,6,8,-1,-15,4,2,17,10
1482546558231167,0,-3,-19,-4,-9,-2,-7,-3
1482546558231167,-4,-2,-9,-20,-5,-5,-16,-6
1482546558232704,4,6,11,27,13,7,9,2
1482546558232704,-4,-5,2,-34,-10,-9,3,-4
1482546558244701,-4,2,20,-5,-4,-5,-9,1
1482546558244701,-4,0,-16,-13,-7,-1,-12,4
1482546558253325,4,-4,-5,-13,-5,2,14,19
1482546558253325,1,-3,-2,-21,-1,-2,-7,-14
1482546558268341,1,3,-10,8,1,-2,22,6
1482546558268341,-5,-5,19,18,1,0,-5,5
1482546558270323,-4,-7,3,-11,-7,-1,-6,-4
1482546558270323,-1,0,-7,26,2,0,-38,-27
1482546558290358,-1,1,24,15,-1,-4,22,20
1482546558290358,1,4,-24,-11,7,5,38,9
1482546558292353,2,-2,12,-39,0,3,-9,-16
1482546558292353,-4,-4,-24,21,-15,-11,5,41
1482546558304365,0,3,7,-11,6,6,-39,-72
1482546558304365,-3,-6,-9,0,13,12,7,0
1482546558313354,2,4,3,3,-5,-6,-9,-7
1482546558313354,-1,0,-27,-41,-8,-7,3,7
1482546558327382,-1,2,19,7,-2,-1,-3,13
1482546558327382,-2,-1,1,12,-5,-7,-6,-1
1482546558334409,-6,-1,-14,-18,1,6,-12,-7
1482546558334409,1,-3,34,18,3,3,18,1
1482546558350521,4,1,-9,1,1,1,3,3
1482546558350521,1,-1,-7,0,-4,-5,-1,-2
1482546558352507,-2,-1,-7,-1,-2,2,1,3
1482546558352507,-5,-3,-7,0,-1,-4,14,0
1482546558373538,-1,0,34,10,-2,-1,-19,-7
1482546558373538,2,0,11,6,4,4,18,9
1482546558374523,-7,-11,-25,-40,-8,-9,-12,-28
1482546558374523,-1,0,12,10,-3,-3,-12,37
1482546558387585,16,3,-36,-37,-1,2,4,23
1482546558387585,-27,-4,50,13,-3,-14,-32,-21
1482546558394709,0,2,0,18,-3,-4,15,5
1482546558394709,0,-1,-8,-9,7,5,-7,-27
1482546558410720,-2,0,-13,37,-1,-2,-20,1
1482546558410720,4,-2,-18,-21,1,4,8,6
1482546558412694,0,2,21,12,-6,-3,-21,-13
1482546558412694,-1,-2,-8,-1,-1,-2,-7,-13
1482546558433772,-4,2,11,11,9,8,35,21
1482546558433772,3,1,-27,-11,-7,-7,-26,-11
1482546558435250,-1,-1,-12,-10,-2,-3,5,2
1482546558435250,3,-1,10,1,-5,0,14,1
1482546558447258,-6,-2,-17,36,11,2,11,13
1482546558447258,-2,-6,11,-32,-2,4,-21,-16
1482546558456144,1,-1,10,-38,-19,-13,-7,-2
1482546558456144,-3,2,-2,46,26,6,-2,1
1482546558471178,-4,-1,20,-5,-9,-1,-2,-13
1482546558471178,1,-1,-31,0,3,0,7,6
1482546558472149,1,3,-2,-1,-2,0,-5,2
1482546558472149,-3,-7,-6,-10,3,-2,17,-2
1482546558493221,-2,-10,-21,-10,4,2,-11,-5
1482546558493221,3,10,13,16,3,2,-1,3
1482546558495172,3,3,46,-37,-13,0,8,5
1482546558495172,-6,-10,-65,-4,-9,-9,-2,-6
1482546558507231,4,9,3,1,5,-1,-18,-8
1482546558507231,1,-5,17,-4,-4,-2,10,3
1482546558516186,0,3,-25,9,6,5,-22,2
1482546558516186,1,0,22,8,-1,3,20,6
1482546558531221,-2,0,8,-11,-6,-5,-23,-26
1482546558531221,3,-4,-19,3,-2,3,30,19
1482546558532704,3,-4,-9,20,9,2,-26,-3
1482546558532704,4,0,3,-2,3,5,21,7
1482546558552858,-5,0,33,-5,-4,-4,1,-5
1482546558552858,-3,-4,-12,5,-9,-6,-6,-11
1482546558554846,-4,0,11,-3,-4,-3,0,-1
1482546558554846,1,-1,-7,13,11,15,6,0
1482546558566874,10,16,35,-31,-4,-11,-14,-2
1482546558566874,9,-15,6,14,8,2,-8,-4
1482546558576955,-26,-25,-47,-9,8,8,11,-3
1482546558576955,0,2,-8,-17,-18,-10,-10,-8
1482546558590937,-6,1,-2,6,-2,0,-2,-3
1482546558590937,7,8,3,-28,-18,-5,-3,6
1482546558591937,8,3,18,37,2,-6,36,10
1482546558591937,-1,-5,-24,2,18,12,-19,2
1482546558613010,-6,-6,-3,-18,-17,-9,-4,-9
1482546558613010,-1,13,51,24,8,2,-1,-2
1482546558614983,-1,-5,-114,-39,-17,-3,-1,-3
1482546558614983,-1,-1,17,2,-6,-4,2,6
1482546558627994,7,1,-4,12,5,3,-1,9
1482546558627994,0,6,-17,-5,-2,2,1,-2
1482546558634555,-2,-3,39,21,6,-2,-17,-16
1482546558634555,2,1,-26,-5,-6,-8,2,-3
1482546558651123,-5,-5,9,4,-2,4,29,19
1482546558651123,-11,-13,-41,-31,2,-2,-8,-10
1482546558652125,5,9,50,21,8,8,7,4
1482546558652125,0,4,-4,-15,-9,-9,-34,-15
1482546558673193,-1,-7,-14,17,1,-3,-8,-4
1482546558673193,-1,2,34,29,-3,3,0,-1
1482546558675166,-5,-12,-72,-78,-22,-10,6,2
1482546558675166,-4,-5,44,26,16,13,10,-11
1482546558687203,-4,0,12,-17,-16,-7,-16,10
1482546558687203,3,-2,0,4,20,2,-4,2
1482546558694327,6,8,-11,10,-11,7,-4,-2
1482546558694327,-5,-3,28,-3,-7,-23,9,1
1482546558710310,6,-1,-37,2,3,12,24,33
1482546558710310,-1,2,1,-35,-6,-6,-18,-41
1482546558712283,-7,2,76,15,3,0,-5,-10
1482546558712283,10,-4,-6,-29,-9,3,3,-6
1482546558733339,1,-3,-32,13,3,-5,-9,8
1482546558733339,-2,2,-79,14,4,-1,9,23
1482546558734822,5,2,9,-6,7,-3,-4,-5
1482546558734822,0,6,58,17,-5,0,6,1
1482546558747344,-5,-12,-54,-45,-9,-7,-7,-19
1482546558747344,3,5,35,39,12,7,24,1
1482546558755946,-1,2,16,25,6,9,8,-10
1482546558755946,-2,-8,-36,-42,16,-5,-17,28
1482546558770984,1,3,21,3,-3,-6,-8,2
1482546558770984,-6,-1,-12,-21,-19,-5,-6,-1
1482546558771928,1,3,81,70,-9,-14,-5,-3
1482546558771928,-4,-6,-65,-89,-27,12,29,7
1482546558792949,1,2,16,17,12,7,-7,-13
1482546558792949,-3,-12,-32,-2,-8,-17,-15,-4
1482546558794944,-17,-15,32,-54,11,0,-1,-2
1482546558794944,-6,5,-8,38,-7,-1,0,-6
1482546558807011,3,6,35,31,12,4,2,-5
1482546558807011,-8,-14,-27,-12,-2,7,13,9
1482546558816109,17,14,-8,49,-15,-5,-1,-12
1482546558816109,-25,-26,43,-17,-11,-15,-23,41
1482546558831140,-1,-1,-32,-20,-6,-5,-2,-18
1482546558831140,-1,-1,42,54,6,1,-5,0
1482546558832087,4,-2,-44,-15,4,3,5,6
1482546558832087,9,18,51,13,4,7,9,-6
1482546558853409,-3,3,-11,16,0,0,3,-15
1482546558853409,-9,-5,48,-25,-5,-5,-16,12
1482546558854392,4,10,38,-3,9,3,2,-15
1482546558854392,-1,-2,-20,33,3,-5,-4,7
1482546558866414,-5,1,18,-37,-20,-10,-5,5
1482546558866414,19,9,-11,12,1,5,-3,-12
1482546558875511,-17,-8,-54,-40,0,-6,4,17
1482546558875511,0,14,46,54,12,11,10,-28
1482546558890530,-12,-25,-68,-51,-16,-14,-10,0
1482546558890530,3,3,-6,3,24,11,-4,6
1482546558892501,7,4,61,15,-18,-9,-6,5
1482546558892501,2,-2,-30,3,1,0,5,-7
1482546558913544,0,3,-13,5,-9,6,23,3
1482546558913544,-9,-6,5,-19,-9,-7,-24,-8
1482546558914490,5,0,-53,-3,7,-2,-16,1
1482546558914490,0,5,36,-13,-7,-2,6,-7
1482546558926554,0,-4,4,18,11,4,-4,-1
1482546558926554,0,6,-1,-7,-1,1,-31,-21
1482546558936094,3,-1,12,7,7,6,36,30
1482546558936094,-1,-9,-71,-35,-7,-3,-25,-16
1482546558950369,4,6,99,12,9,4,6,21
1482546558950369,-8,-12,-78,-8,-2,1,13,15
1482546558952367,2,0,-3,5,0,-2,-31,-48
1482546558952367,9,7,17,9,2,5,23,-16
1482546558973386,3,-2,-3,8,18,10,28,13
1482546558973386,0,-1,10,-23,-31,-18,-16,41
1482546558974381,9,-10,-6,37,44,1,-17,-32
1482546558974381,12,23,24,8,-27,5,18,-3
1482546558986390,38,9,-8,-9,53,26,11,-17
1482546558986390,-46,-18,92,39,-82,-33,-25,-8
1482546558995400,-5,-7,-101,-24,93,37,1,24
1482546558995400,-8,-10,-14,-51,-72,-15,-19,-3
1482546559010449,-1,9,94,19,-20,-1,0,-8
1482546559010449,32,16,29,35,11,11,30,-2
1482546559012423,-10,-5,-20,-14,-29,-11,-2,10
1482546559012423,-3,-1,-16,17,32,7,-11,-9
1482546559033526,-11,-10,-8,-8,-8,-8,-15,10
1482546559033526,-3,-2,-11,-17,12,0,2,-15
1482546559035000,-7,4,54,13,-33,-7,4,1
1482546559035000,10,4,-33,26,41,8,-1,15
1482546559047055,-5,-4,32,-20,-3,-7,5,-6
1482546559047055,-4,-4,9,-13,4,5,-5,1
1482546559063318,9,10,25,-27,-24,3,16,48
1482546559063318,-7,-16,-30,-19,-13,-21,-21,-17
1482546559071325,-19,-6,-12,65,-16,-15,-41,-60
1482546559071325,-3,-4,81,-46,53,24,16,-10
1482546559072351,-3,3,-2,29,-45,-5,11,0
1482546559072351,0,0,28,-2,33,9,8,23
1482546559093394,5,15,30,44,-10,-5,-3,16
1482546559093394,5,-9,-83,-27,-29,-6,14,-7
1482546559094347,-32,-20,-1,-4,6,-7,-10,-6
1482546559094347,-4,8,29,68,43,8,-1,4
1482546559107379,-9,-20,-62,18,-36,-2,9,0
1482546559107379,3,6,-3,-38,-6,5,-1,17
1482546559115503,7,16,37,34,13,0,-11,-35
1482546559115503,2,15,77,-7,-20,-4,-20,-37
1482546559130536,-13,-31,-64,-36,2,-5,3,17
1482546559130536,14,15,-3,-4,-10,5,25,12
1482546559132484,-2,-8,-88,-27,-14,-13,-99,-56
1482546559132484,-5,-12,43,-33,-2,4,72,75
1482546559153137,8,15,28,-1,2,13,-68,-2
1482546559153137,7,-1,43,26,5,-15,-46,-16
1482546559155151,-23,-20,-18,-45,-7,-4,66,19
1482546559155151,14,0,-65,9,-4,-3,-25,-23
1482546559167162,3,0,-45,6,-2,-6,4,-1
1482546559167162,-8,4,14,-18,18,7,4,16
1482546559183240,13,8,24,30,9,12,-18,-1
1482546559183240,1,3,11,0,-16,-7,-9,16
1482546559191248,-12,-26,-32,-36,-9,-10,18,9
1482546559191248,5,4,6,36,17,0,-12,-18
1482546559192247,6,-2,-58,-14,-4,1,-30,-14
1482546559192247,-1,-3,-9,3,-4,6,63,0
1482546559213290,-14,21,16,-39,-10,-4,-1,21
1482546559213290,-13,-10,4,85,35,13,18,5
1482546559215236,13,-4,3,-7,-7,-10,-11,-28
1482546559215236,-28,-12,27,-19,-12,2,27,26
1482546559227247,18,15,-17,-11,-2,0,17,70
1482546559227247,1,-1,-2,2,2,-16,-50,-90
1482546559236275,-22,11,65,22,-5,-2,-7,6
1482546559236275,-2,-9,-93,13,10,-2,-45,-15
1482546559250452,10,7,79,17,2,17,-16,-28
1482546559250452,-17,4,-50,-37,-10,2,118,102
1482546559256470,23,3,-2,2,2,-10,-32,-26
1482546559256470,-13,-2,20,-19,-6,-5,36,32
1482546559273488,-7,-1,-11,7,15,13,-23,-10
1482546559273488,3,2,18,21,-2,2,-61,-30
1482546559274472,-2,-2,2,-1,10,7,-35,-22
1482546559274472,3,-1,91,1,-48,-16,36,4
1482546559295497,-3,-13,-15,-24,26,-24,-10,-15
1482546559295497,-18,-15,-49,-50,-9,0,5,-8
1482546559297488,2,9,37,31,-15,-4,17,26
1482546559297488,7,0,-18,-32,9,3,-47,-15
1482546559310494,6,4,16,21,-3,-3,-5,-15
1482546559310494,5,6,20,14,3,4,40,46
1482546559316518,-3,-4,-3,-16,1,6,19,-12
1482546559316518,-3,3,-33,12,0,-6,-42,-26
1482546559333539,7,-8,14,-2,-5,-8,33,20
1482546559333539,27,2,-19,1,-9,-4,-30,6
1482546559335074,-52,-4,-14,-4,-6,3,10,-4
1482546559335074,-1,-12,-8,17,10,-1,-68,2
1482546559355694,-11,18,21,-17,8,16,-18,-55
1482546559355694,4,-17,-63,-22,1,0,-48,-6
1482546559357695,35,22,21,0,7,5,29,47
1482546559357695,-32,-31,-51,28,-5,-10,-32,-29
1482546559369704,-7,-4,16,-27,0,-3,-6,12
1482546559369704,-3,-3,-41,-5,-11,0,12,-12
1482546559376708,8,7,23,-41,1,-5,2,2
1482546559376708,9,9,-53,3,9,7,-3,-4
1482546559393769,-1,-6,90,94,-4,-1,-55,-29
1482546559393769,-4,-5,11,0,4,11,80,30
1482546559394769,1,-9,-3,10,-3,-6,-13,18
1482546559394769,9,9,21,-25,-4,-5,9,5
1482546559415839,-2,-5,-61,-32,9,8,-8,-13
1482546559415839,-2,4,10,4,-4,-4,-23,-21
1482546559417786,1,-7,-1,18,-6,-7,19,30
1482546559417786,8,7,8,-31,10,2,2,-4
1482546559429849,-4,-2,-16,-3,11,11,20,1
1482546559429849,-8,-6,29,-4,-33,-12,-22,-14
1482546559437390,5,-11,-28,25,38,8,27,32
1482546559437390,0,0,3,13,-3,-8,-49,-41
1482546559453662,-10,0,2,2,-8,-9,33,-6
1482546559453662,19,12,-32,4,9,1,-11,11
1482546559454634,1,-4,53,13,-12,2,-1,-2
1482546559454634,-23,-21,4,-35,-5,-3,-29,-7
1482546559475678,1,-18,-76,-40,-5,-6,-4,8
1482546559475678,-1,9,26,-1,-2,-2,-7,-12
1482546559477651,20,6,11,-1,-4,-3,-15,-9
1482546559477651,-6,9,-27,17,12,8,22,-4
1482546559489629,-1,6,10,-12,-9,-3,43,36
1482546559489629,1,-2,8,-27,8,1,0,3
1482546559496691,-20,-14,-63,10,-8,-2,-5,10
1482546559496691,18,13,56,12,-6,-3,-4,2
1482546559513678,-1,-5,4,12,4,-3,-7,-7
1482546559513678,-11,-4,3,28,5,-1,-3,-11
1482546559514652,7,3,11,-53,-9,1,-3,3
1482546559514652,8,2,-23,14,10,8,10,4
1482546559536252,-5,-9,-54,-22,-8,3,-3,0
1482546559536252,2,6,-11,-21,-9,-14,-34,-17
1482546559537752,-8,-5,3,-2,-16,-4,27,19
1482546559537752,6,-4,-11,5,-5,-3,2,10
1482546559550252,-2,11,12,22,8,0,-11,8
1482546559550252,-3,-4,15,2,11,3,-4,-25
1482546559557337,6,-6,-33,-10,-15,-11,-40,-11
1482546559557337,-12,2,10,-6,-8,1,-27,14
1482546559573379,11,12,7,10,7,9,67,25
1482546559573379,1,-2,13,3,0,-2,-12,31
1482546559575349,12,-24,-26,-9,-8,-2,-10,-48
1482546559575349,-16,-4,8,3,6,1,-19,-28
1482546559595392,-5,1,4,-2,-1,-6,-25,-22
1482546559595392,-2,1,-2,6,-2,1,15,16
1482546559597365,-4,12,26,1,10,1,-1,4
1482546559597365,10,-2,5,13,5,1,19,18
1482546559609401,-2,-3,1,5,-7,-8,-9,1
1482546559609401,4,10,46,-20,3,7,8,1
1482546559618357,-7,-3,27,5,-4,-2,-7,6
1482546559618357,4,-6,-10,14,-4,-2,9,-4
1482546559634099,-3,-2,7,-38,-16,0,-5,2
1482546559634099,0,1,14,10,6,-2,-3,-16
1482546559636048,-4,5,7,0,9,7,12,5
1482546559636048,7,-1,51,11,3,9,21,30
1482546559655592,3,4,-31,-21,-8,-7,-31,-34
1482546559655592,-6,-12,-51,19,12,0,-9,-4
1482546559657589,-12,-10,-27,-30,-14,-7,3,-3
1482546559657589,1,7,64,20,-11,-6,8,2
1482546559669694,1,-3,-44,-3,-1,11,3,2
1482546559669694,0,2,6,12,8,10,9,-9
1482546559676699,0,3,-23,-2,4,-6,-7,22
1482546559676699,-3,2,-7,-3,2,-1,4,-10
1482546559693659,6,-4,32,14,-8,-12,-25,21
1482546559693659,-15,-7,-57,-16,-12,-6,30,21
1482546559694660,21,10,41,6,10,11,-30,-33
1482546559694660,3,0,-28,-20,-9,-6,28,7
1482546559715729,-36,-1,23,8,5,0,-45,-19
1482546559715729,47,-2,-20,0,-3,1,-36,-1
1482546559717701,-30,-4,35,6,-2,2,40,32
1482546559717701,-1,-1,-38,-15,0,-1,-7,-19
1482546559729737,19,7,7,20,9,-4,4,13
1482546559729737,-3,16,118,25,1,-5,-35,-20
1482546559737298,-18,-45,-123,-42,-17,-7,-2,-12
1482546559737298,7,2,45,5,0,1,-4,8
1482546559753374,-7,-1,36,-3,-6,-1,5,3
1482546559753374,-11,1,-14,13,-8,-7,-3,-20
1482546559755356,10,11,-34,1,8,5,15,7
1482546559755356,-12,-10,-4,-27,-9,-4,-3,1
1482546559775391,6,-2,11,7,2,2,14,5
1482546559775391,-7,-7,2,-4,-2,-2,7,34
1482546559777372,-4,7,3,26,1,-1,-20,0
1482546559777372,3,2,-5,-3,0,-1,-26,-36
1482546559789402,18,6,2,0,-2,-5,8,7
1482546559789402,-18,4,-5,0,-4,0,-3,-28
1482546559798402,8,-13,-15,1,-5,-6,12,46
1482546559798402,-3,-5,-46,6,27,10,5,-4
1482546559813518,1,4,-35,-38,-5,-5,-8,-6
1482546559813518,-9,-10,10,-19,-10,-3,15,1
1482546559814463,0,3,-32,2,-2,0,-19,-22
1482546559814463,8,7,11,-1,-3,4,19,0
1482546559836095,-3,-5,39,60,14,3,11,25
1482546559836095,1,-7,-53,-48,28,6,-16,-13
1482546559837544,6,11,26,-10,-13,-11,1,15
1482546559837544,-10,-13,-63,-14,-4,-3,-9,-7
1482546559849168,-6,2,4,32,10,16,29,-4
1482546559849168,-3,2,35,17,-12,-17,-4,2
1482546559858325,8,4,22,11,-8,-15,-40,-2
1482546559858325,1,3,-17,-7,7,8,46,26
1482546559873307,-6,-5,-32,-31,-16,1,-34,-19
1482546559873307,9,-3,24,60,23,15,27,4
1482546559874310,-27,-11,-7,-37,11,-10,-7,13
1482546559874310,3,5,26,11,-12,-6,-10,-5
1482546559896324,-15,-2,-31,-10,6,1,-8,-8
1482546559896324,-3,-17,-86,-51,-28,-2,15,10
1482546559897351,-4,11,27,22,7,9,9,-24
1482546559897351,10,13,45,9,-3,1,-17,-3
1482546559909359,5,-10,27,4,9,-2,8,12
1482546559909359,-10,-10,-8,11,-10,-12,-33,-9
1482546559918343,1,6,4,5,4,4,5,-16
1482546559918343,3,2,-19,-2,-3,2,3,6
1482546559933376,8,11,85,45,-7,-5,13,-16
1482546559933376,-4,-16,10,-60,21,8,6,5
1482546559934861,-1,-1,-2,59,42,12,1,-8
1482546559934861,7,14,99,35,13,11,3,33
1482546559955473,-2,-8,-25,-11,-18,-9,-10,-13
1482546559955473,-3,5,-46,-21,-25,-7,-4,-4
1482546559957469,2,2,0,-8,-8,0,18,-6
1482546559957469,0,-6,50,-10,-21,-19,-20,-16
1482546559969480,-18,-16,-61,-18,6,1,-3,-3
1482546559969480,5,7,94,43,2,1,3,3
1482546559978500,13,12,67,22,4,12,19,1
1482546559978500,-10,-17,-78,-55,-14,-12,-20,4
1482546559993536,6,-13,-60,-8,-6,-9,-27,-26
1482546559993536,7,11,38,-9,-5,-3,29,18
1482546559994509,0,13,-26,-2,-7,4,15,46
1482546559994509,-13,-26,5,14,5,-3,-22,-18
1482546560015552,-53,-1,-6,-7,-5,-10,-16,-43
1482546560015552,11,12,54,-4,-11,3,20,4
1482546560017525,8,2,-94,-9,2,0,5,-2
1482546560017525,25,16,60,9,-8,2,19,29
1482546560029680,-24,-13,-38,-26,-7,0,2,-1
1482546560029680,8,-21,7,-27,1,-8,-21,-28
1482546560038694,-5,3,-22,-6,-2,4,5,-6
1482546560038694,-4,-19,-39,2,-42,-11,-9,-11
1482546560053229,26,21,56,26,4,-2,9,21
1482546560053229,-5,-2,-69,-60,-33,-3,-11,-1
1482546560055218,13,-5,54,54,46,11,9,1
1482546560055218,-13,0,-37,-43,8,-6,-64,-16
1482546560076235,7,-9,41,10,-21,-10,49,21
1482546560076235,-16,3,-54,3,12,4,-60,-18
1482546560077248,2,-5,4,-16,-26,-12,80,26
1482546560077248,4,13,34,33,24,22,27,1
1482546560089261,25,11,6,8,20,15,-21,15
1482546560089261,0,2,-54,-13,-3,0,23,16
1482546560098305,4,2,26,-25,-17,-15,-83,-46
1482546560098305,-30,-14,-54,-16,-5,-13,0,-13
1482546560113371,7,5,50,-37,-16,1,27,15
1482546560113371,48,28,42,73,-1,11,4,3
1482546560115318,-39,-48,1,11,15,-8,-13,-8
1482546560115318,-1,-5,-35,-57,12,7,81,14
1482546560135949,35,8,-23,30,28,7,-3,3
1482546560135949,-31,3,77,27,-4,2,-14,-17
1482546560137394,-17,-3,61,-19,-23,-4,-22,-17
1482546560137394,4,-4,6,10,-33,-21,-34,6
1482546560149917,-4,5,36,8,38,10,29,6
1482546560149917,13,-4,-82,-16,4,5,13,7
1482546560158069,4,10,65,8,-6,1,-14,0
1482546560158069,-6,6,20,10,11,0,11,3
1482546560173084,2,0,-20,0,-28,-12,-76,-41
1482546560173084,-7,1,21,1,-12,-14,76,30
1482546560175081,-11,-13,-41,25,15,11,2,6
1482546560175081,12,15,1,-22,32,21,-62,-19
1482546560196098,4,-6,38,-25,12,12,67,29
1482546560196098,-16,-3,-11,5,5,5,25,10
1482546560197083,-10,-13,-92,-59,-32,-19,-60,-76
1482546560197083,18,3,13,7,-13,-16,5,9
1482546560218106,-26,0,9,10,5,2,-23,2
1482546560218106,17,3,33,5,19,9,-14,69
1482546560220127,13,19,69,56,0,-4,-1,-25
1482546560220127,-28,-13,-44,-47,1,-2,-55,-38
1482546560233110,5,-13,7,-20,-6,-3,28,10
1482546560233110,-39,-13,-32,30,-11,-7,4,-14
1482546560239732,0,-18,-54,-88,-26,-7,7,42
1482546560239732,4,0,56,60,-2,-3,5,-4
1482546560255308,-3,-2,-13,16,-6,-5,-4,-2
1482546560255308,10,21,68,55,11,0,-11,-8
1482546560257290,12,9,-6,-57,6,14,25,12
1482546560257290,-11,-6,-33,-8,6,0,-6,-23
1482546560278322,-5,6,-22,-14,-15,-6,-19,-9
1482546560278322,5,-13,-20,-13,7,-4,13,22
1482546560280323,22,8,62,34,0,0,8,-8
1482546560280323,-32,-4,-14,15,-2,-3,32,39
1482546560292333,14,4,-33,-13,10,6,15,3
1482546560292333,-12,-8,-47,-46,-8,-6,-69,-28
1482546560299338,-5,-5,-14,-25,2,-5,-6,5
1482546560299338,22,6,34,-11,-4,6,41,26
1482546560315348,-11,3,-3,14,3,-6,-26,-4
1482546560315348,-12,-3,65,-8,6,23,16,-33
1482546560317333,4,-2,41,2,-17,-20,-12,35
1482546560317333,-7,6,4,15,6,5,28,37
1482546560338387,9,5,-22,-23,-7,-5,31,16
1482546560338387,-16,2,-3,23,12,-2,-40,-15
1482546560340384,9,0,-73,-45,9,17,11,-5
1482546560340384,-7,-3,86,20,-10,-7,-34,-14
1482546560352536,-3,-6,-18,-83,-9,-11,-1,8
1482546560352536,-1,-12,18,-5,-1,-1,18,7
1482546560359544,3,7,-14,54,-5,-11,-16,-13
1482546560359544,-8,-11,-75,-24,0,-1,6,-18
1482546560375556,8,-2,37,29,4,7,-15,-2
1482546560375556,7,-1,-35,-17,6,-2,0,25
1482546560377554,14,23,-34,-9,2,7,1,-7
1482546560377554,6,7,51,-22,10,5,-3,-14
1482546560398610,-13,-17,17,37,-27,-12,-3,-4
1482546560398610,3,-9,-4,12,6,-9,-12,-10
1482546560399611,1,6,25,19,-3,0,28,18
1482546560399611,8,6,-23,4,3,12,5,0
1482546560412675,3,5,-8,-9,14,8,-50,-52
1482546560412675,6,1,-8,-23,7,-4,42,68
1482546560419681,-27,-7,6,35,-22,-11,-10,-14
1482546560419681,7,-3,-22,-42,7,-4,-10,-12
1482546560436155,-5,3,-5,14,-3,2,0,4
1482546560436155,10,5,7,17,-14,-4,-16,-42
1482546560437682,-2,1,17,11,29,12,8,10
1482546560437682,-32,-1,-36,-42,-5,-3,6,22
1482546560457799,-10,-23,-52,26,-15,-13,-7,-22
1482546560457799,-3,9,22,10,-8,-8,-22,-15
1482546560459798,8,4,14,-13,-2,0,-24,-23
1482546560459798,15,-4,-9,20,-2,-1,44,20
1482546560472812,1,11,-6,-2,7,1,32,56
1482546560472812,8,9,39,11,2,2,-37,-46
1482546560479797,-18,-28,-60,-66,-19,-7,41,28
1482546560479797,16,5,61,73,-7,-6,-27,-17
1482546560495826,-10,7,8,-87,-5,-4,-13,-19
1482546560495826,7,-7,4,-2,-7,-6,2,-7
1482546560497810,-7,4,12,12,10,4,0,-10
1482546560497810,12,1,5,43,16,14,-21,19
1482546560517827,-2,-5,17,-8,-5,-5,32,28
1482546560517827,3,0,-66,-6,-6,-2,-15,-23
1482546560519841,-20,-3,20,5,-1,-5,-11,-1
1482546560519841,3,-4,-32,-2,-6,-10,-10,-15
1482546560531851,21,4,29,29,1,5,3,2
1482546560531851,5,1,0,-19,2,0,-2,-14
1482546560540875,2,2,25,19,7,10,24,12
1482546560540875,-1,-4,-13,1,-2,1,0,-7
1482546560556001,18,3,-1,15,4,0,-30,-4
1482546560556001,-11,-2,22,-24,-10,-8,8,9
1482546560556986,13,6,67,31,-4,0,-7,-3
1482546560556986,-19,-13,-54,-32,-8,-4,-4,-10
1482546560578016,17,19,78,48,8,-2,-13,-10
1482546560578016,-11,-28,-89,-18,-4,-2,3,0
1482546560580003,6,24,19,-7,10,8,-2,2
1482546560580003,-13,-19,-8,-15,-13,-7,0,-3
1482546560593013,-13,-4,-43,1,-5,2,17,3
1482546560593013,-4,0,-24,5,3,5,7,1
1482546560599030,3,6,32,23,4,-2,-5,-4
1482546560599030,23,11,27,-2,2,7,-2,2
1482546560616027,-30,-11,-21,-16,-10,-17,-47,-5
1482546560616027,2,9,45,34,1,2,32,11
1482546560617029,15,-17,1,-13,5,5,-15,-16
1482546560617029,-17,6,-9,-6,-1,-4,20,14
1482546560638581,2,-2,-21,12,-4,5,-5,-4
1482546560638581,-7,-5,8,2,5,6,2,-1
1482546560640079,-3,2,-35,16,-1,-3,19,19
1482546560640079,-4,-11,3,-22,-13,-8,-16,-16
1482546560652283,4,3,-3,-11,5,4,-30,-31
1482546560652283,-2,2,-19,2,-2,-8,73,44
1482546560661259,6,-10,-17,-17,-8,-6,-15,32
1482546560661259,-16,9,33,37,14,5,-13,-60
1482546560676297,-9,-3,35,-26,-5,-1,14,17
1482546560676297,7,4,43,37,3,5,-23,-28
1482546560677295,-3,-10,24,-18,3,5,-6,12
1482546560677295,4,-4,-22,-1,-18,-5,13,11
1482546560706289,-10,-1,50,19,8,-6,-19,-25
1482546560706289,-5,-3,19,-1,0,-1,-18,-8
1482546560707316,9,12,76,3,1,0,7,-2
1482546560707316,13,13,62,29,1,1,-6,5
1482546560712323,-7,-23,-83,-74,2,5,17,1
1482546560712323,10,-3,19,-21,-9,-8,-20,-2
1482546560721302,-8,2,0,20,-2,-3,12,-11
1482546560721302,-9,6,-4,-11,3,-3,4,9
1482546560735363,32,-1,-46,16,-1,4,9,6
1482546560735363,-36,-9,2,-11,1,-4,1,3
1482546560737844,-4,16,49,11,-2,0,-13,-12
1482546560737844,19,-24,-105,-45,-4,-2,-2,-1
1482546560758576,0,6,81,32,-2,-1,6,10
1482546560758576,-16,-8,-49,-27,-7,-5,-16,-8
1482546560759566,-5,3,57,24,-9,-8,-2,-12
1482546560759566,7,14,20,40,41,37,16,10
1482546560771589,-10,-8,-32,11,9,-3,4,-4
1482546560771589,-2,3,34,-31,-15,1,-6,-7
1482546560780595,-15,-13,-117,-45,-12,-15,-16,-16
1482546560780595,10,13,127,30,0,-8,8,15
1482546560795604,6,15,-12,-12,-9,-1,1,0
1482546560795604,1,4,56,41,13,7,1,5
1482546560797604,1,-1,48,-20,-8,-5,-2,-4
1482546560797604,-10,0,120,1,-6,-8,-18,-16
1482546560818690,-1,-5,-22,-2,1,2,3,6
1482546560818690,10,8,-25,19,3,1,28,15
1482546560819664,-12,11,-59,-2,6,8,9,-4
1482546560819664,23,6,-8,10,-2,-5,8,9
1482546560831725,-4,-43,-41,-4,-16,-11,-14,-18
1482546560831725,19,8,-13,-12,-9,-8,-18,5
1482546560841251,7,2,26,27,12,16,3,0
1482546560841251,7,16,47,37,0,4,7,5
1482546560855851,7,7,-81,-72,18,9,9,16
1482546560855851,-8,-27,90,26,10,2,-7,-24
1482546560857829,-6,-27,8,17,20,-2,-8,-24
1482546560857829,-9,2,-88,-12,-19,-12,-10,-3
1482546560877865,8,24,106,38,-33,-7,9,4
1482546560877865,5,6,-90,-25,10,17,10,4
1482546560879863,-1,5,58,-28,-13,-9,-1,6
1482546560879863,-8,-18,-65,-9,-3,-7,0,-14
1482546560891872,-5,10,49,56,-10,1,9,9
1482546560891872,-19,-6,7,-14,-13,-9,-23,-14
1482546560900860,10,15,1,31,8,2,-1,21
1482546560900860,-10,-22,49,4,-12,-8,-9,6
1482546560915926,0,-6,-18,20,6,6,26,15
1482546560915926,-43,-10,17,63,19,-9,-17,-23
1482546560916898,9,-1,-22,-112,-31,1,-9,-22
1482546560916898,8,23,-63,5,27,5,-3,-8
1482546560938630,19,27,3,42,19,20,14,14
1482546560938630,-21,-28,10,26,-3,-9,-3,-10
1482546560940081,-12,-20,-96,12,-11,-1,-2,6
1482546560940081,-14,-12,35,-12,-13,-9,-1,1
1482546560951600,-14,-4,-41,-57,-8,-9,-10,-9
1482546560951600,31,30,-6,40,-15,-2,4,17
1482546560960668,4,-3,-32,-10,-2,5,7,6
1482546560960668,-2,-3,41,48,-6,-10,-1,1
1482546560975697,-10,-16,33,65,24,7,-10,3
1482546560975697,12,1,3,-61,10,8,-3,17
1482546560977685,-6,16,32,54,-9,-16,-9,-11
1482546560977685,0,-14,-63,-27,-41,-4,9,-2
1482546560998724,-29,-19,-26,-51,59,20,-1,-7
1482546560998724,25,11,37,32,10,0,5,8
1482546560999709,-12,-6,-20,34,0,1,1,5
1482546560999709,22,24,7,5,-16,0,-21,-6
1482546561011721,1,-5,50,-16,-3,-2,12,-15
1482546561011721,-2,-3,-108,-60,-9,-9,-7,-11
1482546561020805,11,-11,62,-5,14,-13,-18,16
1482546561020805,-10,-26,-37,-48,-20,-5,-19,-10
1482546561035845,6,7,64,23,-39,-13,-1,-17
1482546561035845,9,13,-6,-36,6,20,16,2
1482546561037852,11,15,41,100,33,9,10,6
1482546561037852,-3,-14,-102,-49,0,-9,-3,-1
1482546561058063,-5,3,48,4,-13,-1,-6,2
1482546561058063,-4,-5,-47,-55,-18,-13,-8,0
1482546561060010,-4,-5,-14,6,-20,0,1,-11
1482546561060010,5,3,41,23,30,9,7,15
1482546561072075,-6,-2,-20,29,-24,-18,-11,-5
1482546561072075,-1,-4,47,13,-11,-3,-10,-9
1482546561081025,-3,6,0,-29,2,-1,12,4
1482546561081025,-5,6,-14,0,4,-2,-5,-5
1482546561096095,0,-5,10,-25,-15,-16,-34,2
1482546561096095,1,-3,-6,13,18,22,44,14
1482546561097036,0,-5,16,-18,14,18,1,5
1482546561097036,-5,-6,-30,-32,-1,0,18,0
1482546561126117,-6,3,-8,9,-3,-8,-22,-10
1482546561126117,-2,5,73,14,3,-5,-14,5
1482546561127057,1,-16,-57,-34,-21,-12,-42,-7
1482546561127057,-26,-4,24,-1,8,5,15,-43
1482546561132117,12,3,17,-3,-1,-7,30,0
1482546561132117,-7,-10,-7,8,-5,-6,-7,24
1482546561141160,-4,13,-3,-12,5,5,-71,-33
1482546561141160,8,-4,27,9,1,2,77,63
1482546561155243,-3,5,-13,-12,2,5,11,-55
1482546561155243,-6,-4,13,26,-7,-11,-22,-41
1482546561162237,21,-5,-4,-11,-3,-7,3,72
1482546561162237,-24,1,14,-14,12,2,-60,-79
1482546561178296,-1,5,39,27,5,6,7,20
1482546561178296,5,-6,-45,-18,-16,-3,13,3
1482546561180242,-21,-13,-6,-58,-5,-4,4,-20
1482546561180242,8,4,70,101,3,-5,7,20
1482546561200284,-17,-6,-31,-38,0,1,11,9
1482546561200284,4,4,16,8,4,0,-13,-20
1482546561202285,-16,-3,-21,-11,0,-2,16,-4
1482546561202285,36,7,-15,-4,6,9,-9,46
1482546561215322,-25,2,27,-23,-9,-10,-37,-1
1482546561215322,19,1,-5,6,-1,3,24,-5
1482546561222274,-53,-3,-11,0,-2,-12,35,16
1482546561222274,47,7,-3,-6,-1,-4,3,-8
1482546561238302,26,-5,-35,-10,2,1,-26,13
1482546561238302,-1,6,2,-12,1,1,-5,7
1482546561240289,1,-4,-1,-7,3,9,27,-10
1482546561240289,-23,-9,-14,29,5,2,-19,-2
1482546561260401,16,3,9,-33,-1,-1,0,15
1482546561260401,-14,-3,2,35,-2,0,11,2
1482546561262385,12,1,-2,-9,-3,-1,2,-13
1482546561262385,-12,-4,-22,-5,-2,-3,-12,-2
1482546561275412,5,8,-29,-3,-2,-2,10,-2
1482546561275412,-9,-17,28,2,-2,-1,-5,6
1482546561281416,6,-6,6,5,0,2,-4,-6
1482546561281416,-2,6,-37,-31,-5,-4,-2,5
1482546561298429,-16,-24,-15,17,3,2,8,-5
1482546561298429,3,3,9,-26,-6,-3,-15,-7
1482546561299417,5,-10,-22,20,3,0,7,1
1482546561299417,-7,-6,31,8,0,1,-2,-2
1482546561320540,2,13,1,1,-5,-4,-4,1
1482546561320540,-1,0,-14,-5,-9,-8,-7,-1
1482546561322512,8,1,2,23,4,4,15,-4
1482546561322512,-8,5,1,-32,9,4,-3,-4
1482546561335500,-4,-1,6,43,-7,1,-6,1
1482546561335500,-6,5,4,-42,-1,-5,-2,3
1482546561342072,4,1,-2,3,3,4,5,-1
1482546561342072,18,5,13,-12,-10,-1,-2,2
1482546561357099,-8,5,-11,12,5,-1,2,4
1482546561357099,17,7,-4,9,2,0,-4,1
1482546561366182,-35,-6,10,4,-3,0,0,-4
1482546561366182,2,-18,-5,-1,3,-1,-1,-1
1482546561381195,12,-6,-4,-18,-5,-3,1,-4
1482546561381195,-22,4,2,14,2,-2,-3,1
1482546561382165,17,1,-2,4,4,-2,-5,-3
1482546561382165,2,13,2,-12,-2,0,-2,0
1482546561396204,-6,-6,-4,-2,1,5,11,-2
1482546561396204,8,-2,0,0,-3,-7,-14,-1
1482546561403210,4,6,-3,8,1,0,4,0
1482546561403210,-12,-12,0,-5,-2,0,-2,0
1482546561418246,11,5,1,-3,5,2,5,4
1482546561418246,-3,-3,-6,6,5,3,2,0
1482546561420204,0,-5,-1,-10,-8,-4,-2,-4
1482546561420204,-8,-1,2,2,-2,-2,-1,-3
1482546561441272,-3,3,6,-5,2,0,-4,1
1482546561441272,13,-1,-6,2,-1,-1,1,1
1482546561442771,-1,-2,-2,0,-8,-6,-6,-3
1482546561442771,-3,7,9,-2,-1,3,4,0
1482546561454871,6,1,-14,13,10,3,-1,2
1482546561454871,-17,-10,-5,-4,-3,-4,-3,-2
1482546561463871,10,2,16,12,-3,-6,-2,0
1482546561463871,-12,-4,-5,-21,-3,3,0,0
1482546561478938,6,2,36,-6,-8,-6,-3,-2
1482546561478938,11,-4,-66,12,10,10,4,2
1482546561479958,4,0,12,-15,5,6,2,2
1482546561479958,-18,-1,16,14,-3,-5,-2,-2
1482546561501000,-9,-3,-19,5,-6,-2,-3,0
1482546561501000,1,13,8,-9,-4,-3,-2,-2
1482546561501973,19,2,28,10,-2,0,-1,-2
1482546561501973,9,-16,-18,0,0,-3,0,1
1482546561514010,-18,9,0,-7,-1,1,1,-2
1482546561514010,2,-1,24,-10,6,2,-1,0
1482546561523021,-3,-3,-30,9,-2,-3,-3,0
1482546561523021,1,11,6,-4,3,12,-1,0
1482546561538566,0,-9,-3,0,-9,-21,-2,-2
1482546561538566,-4,2,17,11,-14,-6,-1,1
1482546561544595,-1,3,-20,-8,4,13,1,-1
1482546561544595,-2,1,14,3,4,-18,0,-1
1482546561561252,0,-5,-34,1,8,16,-2,-1
1482546561561252,0,0,3,-4,-17,-11,1,-1
1482546561562250,-2,-2,7,1,1,-4,1,0
1482546561562250,2,10,17,3,27,17,3,1
1482546561574287,8,-15,-1,-7,-5,-7,0,-3
1482546561574287,-1,6,23,2,2,3,-1,0
1482546561583266,-8,1,-80,-12,-17,-7,-5,-6
1482546561583266,-6,0,-2,1,-12,-14,-2,-3
1482546561598303,9,32,68,4,6,4,3,6
1482546561598303,-1,6,11,-1,0,5,-2,1
1482546561600276,-4,-2,15,0,4,0,1,0
1482546561600276,1,-2,-26,-1,-5,-5,-1,0
1482546561621294,-4,2,-8,-4,4,6,-9,-4
1482546561621294,1,-1,-5,7,3,1,11,2
1482546561622292,0,3,19,-2,2,-7,-16,-8
1482546561622292,12,13,0,-1,-7,4,19,8
1482546561634328,-20,-18,-27,-22,-2,0,-6,-4
1482546561634328,6,-12,6,9,4,-5,-5,-7
1482546561643858,-16,-4,-2,-23,-5,-1,-38,-10
1482546561643858,8,-15,-10,5,-4,2,55,24
1482546561658488,-18,-5,1,-5,-13,-9,-65,-33
1482546561658488,6,0,-21,2,15,9,40,8
1482546561659474,16,11,17,12,-1,1,3,-5
1482546561659474,-12,-1,1,-13,-10,-3,-18,-12
1482546561680543,9,-17,-8,6,-1,-4,-18,-10
1482546561680543,-5,0,6,-6,-4,-3,-5,4
1482546561682488,5,-5,8,8,-5,-3,21,7
1482546561682488,1,2,-11,4,3,3,-24,1
1482546561694552,1,0,-2,0,1,0,16,6
1482546561694552,-4,-8,-33,-10,-1,3,-17,-7
1482546561703531,-1,12,16,17,2,3,18,10
1482546561703531,-12,-14,7,-21,-7,-11,-21,-11
1482546561718517,3,5,8,11,-2,-2,15,4
1482546561718517,8,0,5,2,1,2,-2,2
1482546561719521,-3,6,12,1,7,6,21,6
1482546561719521,-12,10,-29,-3,1,-1,-38,-26
1482546561741130,-6,-26,-9,5,-2,1,9,6
1482546561741130,0,5,8,-14,-10,-6,15,0
1482546561742594,19,11,-1,-3,-2,-8,-64,-7
1482546561742594,0,0,2,6,0,2,16,11
1482546561754704,-35,-26,5,2,6,9,-26,-19
1482546561754704,7,17,2,8,-10,-7,65,41
1482546561763705,-17,2,-19,-22,-11,-4,-11,-18
1482546561763705,14,-4,-15,0,3,1,-3,3
1482546561778722,15,22,1,17,10,5,10,8
1482546561778722,-21,-28,-5,9,13,-1,-45,-25
1482546561779703,-2,-8,33,-2,-12,0,19,10
1482546561779703,10,57,-16,-18,-13,-7,2,0
1482546561800773,-1,-18,-5,-11,0,-1,12,5
1482546561800773,-1,-3,-4,-3,0,-5,-54,-34
1482546561802750,9,-7,-5,12,4,5,70,40
1482546561802750,1,-5,33,12,2,3,5,-3
1482546561823763,-4,4,-38,-20,-7,-3,14,0
1482546561823763,-1,-1,2,-1,-2,-2,-20,-7
1482546561824735,-4,-8,1,0,0,-3,11,15
1482546561824735,-6,-23,7,7,-1,-3,-44,12
1482546561838776,23,19,13,6,2,0,6,-48
1482546561838776,-12,-3,1,-2,-2,-1,-7,7
1482546561840285,-3,-11,-15,-9,4,3,-22,-15
1482546561840285,-9,-10,6,0,0,4,-4,-16
1482546561860880,17,18,-8,-5,-13,-18,59,41
1482546561860880,-30,-5,0,-1,5,7,-1,-13
1482546561862881,-3,2,-7,-6,1,-7,-82,7
1482546561862881,2,-7,-9,3,5,12,81,37
1482546561873944,4,1,-11,-3,1,0,-35,-4
1482546561873944,4,-3,8,-1,-7,-4,-15,-21
1482546561883910,5,-4,-3,1,-4,0,42,18
1482546561883910,-7,-2,2,7,2,-7,-24,-17
1482546561897962,-3,19,4,8,10,3,-4,8
1482546561897962,8,4,3,-11,-3,8,14,20
1482546561899908,5,-10,-13,1,5,1,3,-19
1482546561899908,-8,-12,3,20,-2,-4,-12,-5
1482546561920980,-5,-20,-5,-25,-1,1,16,3
1482546561920980,-12,-28,25,18,0,5,1,3
1482546561922924,-6,0,-48,-25,-3,-3,-3,-12
1482546561922924,6,11,21,24,2,-2,9,0
1482546561933987,8,2,43,-1,2,5,17,38
1482546561933987,3,-4,22,24,-3,-2,4,-5
1482546561943949,-12,14,-91,-41,-4,0,44,21
1482546561943949,-1,-10,-24,-12,-3,-4,-14,-16
1482546561958052,4,-4,12,17,-1,-1,-49,-21
1482546561958052,11,9,21,7,0,-5,1,9
1482546561960049,-9,-1,48,7,3,4,45,36
1482546561960049,-3,-3,-11,-16,-2,-3,28,-25
1482546561981070,0,3,0,4,0,0,-7,-6
1482546561981070,5,18,-49,10,3,3,-26,-4
1482546561982079,0,-12,5,-14,-5,-2,10,-18
1482546561982079,-5,-8,-18,-12,-6,-14,-42,13
1482546561994116,-3,-2,4,13,-3,4,28,27
1482546561994116,6,1,29,-19,0,0,-18,-28
1482546562003070,1,-1,28,19,10,1,9,17
1482546562003070,1,-4,-18,-17,-15,2,-5,-4
1482546562018077,1,1,-8,1,4,-2,9,-3
1482546562018077,-3,6,-22,-14,-8,-8,-1,-3
1482546562020082,-8,-9,1,4,-1,-2,-31,-34
1482546562020082,-1,-23,26,14,2,-4,-23,-26
1482546562041185,-20,-5,-7,34,2,2,11,4
1482546562041185,12,-15,-17,-76,5,-2,1,4
1482546562042663,-19,-1,14,-1,-11,1,-21,-14
1482546562042663,8,-4,-19,6,8,2,-86,3
1482546562054182,-7,-22,-1,7,-5,5,86,86
1482546562054182,-10,4,25,-11,-8,-10,-10,1
1482546562063301,13,-7,-48,27,1,-2,-7,-19
1482546562063301,-7,5,40,-8,4,5,-7,3
1482546562077315,-2,0,-72,-31,-9,-8,-31,-26
1482546562077315,6,12,-18,27,1,-2,12,15
1482546562084320,1,1,22,-11,1,-2,-19,0
1482546562084320,3,18,24,-12,-4,0,32,2
1482546562100345,-2,1,8,0,-3,-4,-31,-25
1482546562100345,-1,3,7,14,1,2,18,2
1482546562102342,10,11,28,25,14,26,-76,-41
1482546562102342,-10,-13,0,-17,-4,-19,122,85
1482546562123386,13,0,4,-8,-6,-7,-26,-42
1482546562123386,0,-2,-27,1,-5,-4,-52,-12
1482546562124358,-3,-3,19,1,-6,-4,48,27
1482546562124358,-3,3,-17,1,-2,5,-8,-53
1482546562137397,-8,5,14,-10,-2,0,-19,-9
1482546562137397,8,-6,-27,7,5,7,28,21
1482546562144405,11,2,12,15,1,-6,-18,-21
1482546562144405,-7,-7,3,-25,2,-3,-28,-37
1482546562160492,-3,5,9,26,-1,-1,-6,-12
1482546562160492,-10,-7,-8,-47,-7,0,-45,-75
1482546562162490,15,27,57,-21,-4,6,-83,-4
1482546562162490,-24,-1,-14,14,-9,-23,-18,52
1482546562183546,5,4,7,8,6,3,-42,-4
1482546562183546,6,11,28,48,18,15,-73,-45
1482546562184520,-15,-4,1,2,-15,-29,69,78
1482546562184520,8,5,-13,-3,-2,9,30,-53
1482546562197556,-65,-41,-26,0,6,40,-7,-65
1482546562197556,34,1,-29,-25,-1,-30,69,49
1482546562204564,-16,2,-9,-19,-14,-26,2,30
1482546562204564,48,25,-1,20,3,8,-18,-11
1482546562220534,-40,-23,6,-22,-17,-21,8,27
1482546562220534,-12,4,4,20,3,19,-25,-30
1482546562222533,-25,-20,-25,1,9,9,30,19
1482546562222533,17,0,6,6,6,1,7,8
1482546562243572,65,4,-16,-3,2,-2,-28,-4
1482546562243572,-54,3,16,-6,-7,4,103,51
1482546562245071,2,-5,23,7,4,-3,-16,-1
1482546562245071,-10,-3,-48,-3,0,7,-29,14
1482546562257662,39,29,19,-4,7,7,53,61
1482546562257662,-7,2,18,2,-10,-11,57,93
1482546562264667,30,1,12,-7,-3,2,-47,-32
1482546562264667,-8,0,1,-1,-1,3,-16,-29
1482546562280769,-47,-13,-17,-15,-10,-15,5,-49
1482546562280769,-4,-6,31,25,5,2,33,-70
1482546562282716,0,0,-46,-27,-1,14,81,-36
1482546562282716,6,-73,-17,-18,-14,-16,70,51
1482546562303761,-7,-17,-6,-5,3,-16,-75,-79
1482546562303761,22,-58,-4,1,-9,-6,-49,-23
1482546562304732,-2,71,22,18,8,12,-5,-27
1482546562304732,21,20,20,17,-1,10,8,25
1482546562317798,-1,-87,4,-2,9,0,-85,35
1482546562317798,-36,9,11,7,12,26,52,102
1482546562324804,8,-16,34,32,4,4,40,84
1482546562324804,1,20,-31,-64,-26,-5,-45,-2
1482546562341319,31,1,-47,10,-5,-2,-59,-33
1482546562341319,8,61,35,2,23,17,40,11
1482546562342818,13,19,-30,-7,-1,-20,-108,-23
1482546562342818,-20,100,55,69,9,9,43,25
1482546562362962,-1,12,89,-29,-15,-4,40,24
1482546562362962,6,-25,-107,-6,-4,-6,-51,-32
1482546562364950,3,-11,-23,-51,-1,4,-18,-14
1482546562364950,1,-13,10,13,25,5,-81,-45
1482546562377987,-2,31,-12,13,-7,-5,-6,-10
1482546562377987,5,9,16,-10,-16,-22,-70,-30
1482546562384018,-4,-33,9,14,1,0,-25,-47
1482546562384018,-11,-28,21,8,-8,-3,-26,-43
1482546562400992,1,25,0,-6,11,3,27,15
1482546562400992,-4,-8,-31,-33,-12,-2,6,10
1482546562401974,1,-14,44,56,-12,-12,9,-7
1482546562401974,-11,-26,-68,-33,-11,-3,-4,-18
1482546562423044,1,23,14,2,17,15,28,13
1482546562423044,8,7,-33,-28,8,0,-7,-3
1482546562425017,-16,-24,-10,1,-4,1,18,-17
1482546562425017,1,10,4,11,-1,-4,10,16
1482546562437055,5,13,-6,-8,-2,-3,12,28
1482546562437055,5,-10,-13,18,0,0,-29,-16
1482546562446079,-3,2,10,-10,-5,-4,0,-16
1482546562446079,-6,-8,11,1,8,2,3,4
1482546562461173,-2,2,-20,6,-10,-6,24,9
1482546562461173,6,-3,38,19,2,0,-8,2
1482546562462157,-4,-3,-10,22,17,7,22,9
1482546562462157,-5,-30,9,-24,-14,-3,24,-3
1482546562483189,-9,-5,-12,-17,-7,-10,-5,-12
1482546562483189,-4,-2,4,11,-11,-10,10,12
1482546562485187,2,5,7,10,2,-3,-20,-23
1482546562485187,4,-5,-14,6,18,4,-20,-2
1482546562497200,6,11,32,38,-12,-2,23,4
1482546562497200,-3,-16,-38,-89,-8,-4,-32,-32
1482546562506188,-1,-22,-54,25,-3,-4,-25,-16
1482546562506188,6,12,57,19,4,5,36,34
1482546562521212,-14,-19,-9,2,-4,-2,-1,-2
1482546562521212,4,22,27,41,2,-2,-65,-57
1482546562522199,14,-35,-18,-59,-3,1,29,31
1482546562522199,-5,13,-90,-8,2,3,32,35
1482546562543751,-19,16,10,-45,-7,-6,-5,-3
1482546562543751,22,-26,-46,81,-10,-6,-9,-4
1482546562545237,-5,-22,41,-43,-20,-10,-27,-20
1482546562545237,1,-1,14,-15,14,2,-23,-23
1482546562557341,3,7,-7,7,4,7,15,10
1482546562557341,-10,8,-6,18,1,3,9,15
1482546562566333,-4,22,22,69,17,6,1,-3
1482546562566333,10,-3,-36,-99,-8,-3,-3,-6
1482546562580356,-14,-12,18,25,1,-3,-39,-18
1482546562580356,-5,-9,16,-11,-2,-1,70,54
1482546562582343,-5,8,23,6,-5,-3,84,42
1482546562582343,-2,1,9,9,-4,1,-26,-37
1482546562603418,19,4,-2,3,11,1,-34,-43
1482546562603418,-26,-30,-31,-27,-10,-6,5,11
1482546562604389,-3,7,0,-8,9,4,-14,-3
1482546562604389,-3,-5,5,13,-10,-8,-17,-6
1482546562617399,12,13,34,72,4,1,25,11
1482546562617399,17,13,-31,-82,-1,4,-4,-5
1482546562625529,-2,-4,40,32,-30,-12,20,-16
1482546562625529,-39,-4,55,22,10,1,-8,-17
1482546562641098,8,0,-38,1,-6,0,-4,2
1482546562641098,-5,7,7,-1,4,-4,13,-3
1482546562642576,25,9,-32,4,8,8,-44,-7
1482546562642576,1,-18,-56,-53,-7,-1,66,41
1482546562663676,-9,1,8,78,12,6,40,12
1482546562663676,8,4,0,-68,-3,-2,-47,-49
1482546562664677,-8,7,20,-28,-4,-6,-3,19
1482546562664677,4,11,27,91,19,8,-60,-24
1482546562685697,-5,-19,-34,-56,-4,-5,103,40
1482546562685697,10,17,-38,-68,1,1,-11,-15
1482546562687694,-29,-20,48,67,-21,-13,-67,-45
1482546562687694,9,0,-42,13,-1,-4,-21,22
1482546562700707,7,-1,10,-2,8,14,-55,11
1482546562700707,-3,-4,-8,21,0,-9,39,58
1482546562702704,3,-5,-71,-22,11,13,29,-3
1482546562702704,5,0,73,2,-9,-3,-9,-20
1482546562723719,-12,-1,-6,-23,-11,-32,-25,-26
1482546562723719,13,20,32,13,0,18,-45,-20
1482546562724719,-11,-20,-77,-5,32,15,10,-7
1482546562724719,6,5,57,4,-10,8,5,11
1482546562736732,-2,6,59,-1,-50,-29,-62,-24
1482546562736732,-7,-35,-23,36,37,-12,63,42
1482546562746303,3,9,18,0,26,37,3,5
1482546562746303,7,-3,-38,-10,16,9,62,36
1482546562760874,15,8,-32,46,2,-2,-65,-56
1482546562760874,-60,-39,103,-32,-41,-16,56,24
1482546562761863,55,87,47,-70,-37,-24,-1,-7
1482546562761863,-62,-115,-55,-26,-7,-15,-26,7
1482546562782929,7,31,-84,-61,-5,1,20,10
1482546562782929,-6,14,-25,107,2,-2,-21,18
1482546562784902,7,9,16,6,8,-2,-68,-55
1482546562784902,17,26,-32,14,-2,8,54,23
1482546562796910,1,-17,22,-91,3,6,-14,-2
1482546562796910,-1,-6,34,71,4,6,-2,-7
1482546562805919,-6,-20,11,-8,-7,-1,-2,16
1482546562805919,-2,23,-1,17,-5,-19,-36,-31
1482546562820955,-5,-8,-31,5,11,1,24,22
1482546562820955,18,32,14,2,8,27,0,-11
1482546562821902,-11,-12,-14,-15,6,-6,18,20
1482546562821902,0,21,38,32,8,3,-9,-9
1482546562843533,-2,-1,-15,-37,-4,4,26,18
1482546562843533,10,3,86,-19,-10,-12,-25,-24
1482546562845006,-15,3,-70,-14,-12,-8,5,7
1482546562845006,-1,-2,45,73,2,12,-7,-9
1482546562857108,0,-2,15,-35,0,-1,-11,-10
1482546562857108,3,6,8,3,1,-6,-19,-15
1482546562866129,-12,-12,-46,-9,-7,-9,0,3
1482546562866129,8,16,31,34,-26,-11,5,-5
1482546562881139,-19,-12,9,-40,17,10,19,9
1482546562881139,23,11,-8,26,-3,-4,-36,-6
1482546562882116,-4,-5,7,19,3,0,18,17
1482546562882116,16,12,-15,-53,-23,-10,-11,-15
1482546562903182,4,11,22,36,25,12,62,59
1482546562903182,-38,-34,-89,-40,-7,-3,-15,-35
1482546562905126,-8,-4,1,-20,-4,3,-8,-9
1482546562905126,4,13,29,2,19,-8,-12,1
1482546562917192,6,4,-34,-29,-19,1,-16,-5
1482546562917192,6,4,42,35,-5,-8,2,7
1482546562926162,0,-3,14,28,2,-8,20,6
1482546562926162,1,2,14,-20,-11,-1,-67,-39
1482546562941183,-18,-8,0,2,29,4,71,15
1482546562941183,10,9,-29,-51,-11,15,-15,34
1482546562942691,-3,-15,-49,13,6,-7,-11,-2
1482546562942691,1,0,4,0,11,10,6,14
1482546562963440,7,18,45,59,-5,-6,-47,-22
1482546562963440,-12,-29,-63,21,19,1,18,-21
1482546562964428,-11,11,37,-52,6,-6,34,17
1482546562964428,12,-2,23,-93,-36,-11,-33,-51
1482546562985497,0,10,-29,26,-1,-4,-10,-5
1482546562985497,-2,5,30,23,12,0,7,-7
1482546562987441,11,8,-9,-11,-3,5,-22,-28
1482546562987441,-3,2,2,49,20,7,-32,-1
1482546563000507,-2,-13,11,-54,-54,-23,75,51
1482546563000507,2,3,4,0,27,2,-6,26
1482546563002479,5,-8,-6,8,0,4,34,-15
1482546563002479,-22,4,-13,-19,-18,-8,-67,-38
1482546563023521,8,1,36,77,9,16,35,12
1482546563023521,3,1,-54,-94,17,7,-30,-8
1482546563024467,-3,-2,39,62,-26,-8,0,20
1482546563024467,14,-1,-57,-21,91,25,29,5
1482546563036533,-4,-6,-22,12,-29,1,-48,-12
1482546563036533,4,10,58,36,-15,-5,24,-6
1482546563046044,8,9,5,-62,-14,-5,-24,1
1482546563046044,-8,1,48,34,-37,-28,23,2
1482546563059701,2,-3,13,-31,-4,6,-40,-4
1482546563059701,-1,-1,-18,11,36,9,25,12
1482546563068692,-6,6,-12,-24,-13,3,-117,-77
1482546563068692,11,-3,42,25,-13,5,111,103
1482546563090760,-13,3,-17,-47,13,-6,-65,-41
1482546563090760,14,2,44,19,-33,-6,33,28
1482546563092706,-5,-5,-26,7,8,0,5,45
1482546563092706,1,-1,-32,-25,13,4,-36,-58
1482546563105744,-1,-7,-15,35,10,0,-27,19
1482546563105744,15,5,1,-23,-18,-5,10,3
1482546563107716,-29,-3,9,4,17,7,43,22
1482546563107716,-8,-13,-23,21,-9,-4,4,-1
1482546563119781,3,-3,-6,-30,-9,-2,61,43
1482546563119781,-12,-2,1,14,-20,-14,-67,-37
1482546563126785,7,-2,34,-13,2,1,3,12
1482546563126785,-6,1,5,82,43,6,-22,-2
1482546563143332,4,0,-43,-83,4,7,26,-18
1482546563143332,-13,-14,-41,13,-18,-12,-17,-16
1482546563145304,-2,0,78,37,-31,-5,-37,-1
1482546563145304,22,5,-24,3,3,-1,19,3
1482546563165919,-11,-13,-23,22,-11,-12,-28,-27
1482546563165919,-1,0,-49,-9,18,9,10,18
1482546563166908,5,6,-26,-24,-4,2,-91,-92
1482546563166908,1,2,8,-11,-13,5,76,92
1482546563180034,7,2,70,22,-12,-9,-46,-33
1482546563180034,-6,-4,12,-1,7,5,-6,-12
1482546563187036,2,-1,-13,6,4,-7,-16,-20
1482546563187036,19,0,-10,-14,-7,-2,3,1
1482546563203051,-40,-8,15,1,-9,-5,-31,-45
1482546563203051,-4,7,17,4,-11,0,-57,-21
1482546563205002,19,-12,-20,-11,17,9,127,76
1482546563205002,-10,16,53,17,-2,-3,-78,-50
1482546563226066,9,-11,-78,-8,-9,1,-1,6
1482546563226066,-5,-1,32,-15,7,3,-45,-61
1482546563227039,-12,-13,-58,-18,7,1,51,60
1482546563227039,-5,0,36,3,-26,-17,-60,-36
1482546563240076,10,2,0,-17,-1,-8,16,1
1482546563240076,-3,2,-40,27,28,14,34,25
1482546563247206,-6,-9,-21,4,24,5,-66,-54
1482546563247206,11,13,52,-23,-3,16,67,34
1482546563262799,-13,-30,-21,-18,-27,-16,-5,3
1482546563262799,10,2,46,0,-5,-9,-10,-21
1482546563264782,11,10,14,13,-3,-3,-12,8
1482546563264782,-45,-13,-32,-25,0,-2,-36,-25
1482546563285818,19,11,30,54,16,10,38,29
1482546563285818,1,-11,-28,-28,-20,-13,23,14
1482546563287799,-25,3,35,35,3,-4,-23,-30
1482546563287799,-15,-8,-59,-37,-5,1,16,18
1482546563299827,23,9,55,26,11,7,50,42
1482546563299827,9,0,42,11,-2,2,-31,-16
1482546563306869,4,-3,-17,-12,-2,-1,51,44
1482546563306869,0,0,7,7,-9,-6,16,-5
1482546563322995,-2,8,6,-12,17,4,-51,-42
1482546563322995,7,15,-24,11,12,14,10,15
1482546563324968,-5,-13,48,48,-23,-17,24,26
1482546563324968,-7,-11,-10,-36,-6,-8,-32,-20
1482546563346003,18,7,-27,27,13,6,-10,7
1482546563346003,-5,-2,5,-43,-30,-10,44,21
1482546563347494,-1,1,-21,41,8,1,-17,-32
1482546563347494,-4,-13,-41,3,3,-2,27,35
1482546563359095,4,14,39,0,25,10,35,-2
1482546563359095,0,-1,63,-25,-6,-5,32,30
1482546563368163,-9,-13,-51,-37,-7,6,-20,-21
1482546563368163,5,7,37,34,11,-4,0,-3
1482546563383227,15,3,-20,-45,0,4,-50,-39
1482546563383227,-29,-2,11,23,-8,-6,-2,-37
1482546563385201,28,3,0,-5,-3,6,115,108
1482546563385201,13,2,-20,-18,-5,-1,-26,-11
1482546563406218,-17,-6,-25,13,0,-2,-5,2
1482546563406218,3,-2,-21,3,1,-4,-37,-33
1482546563407193,-11,7,19,-18,0,-6,-96,-57
1482546563407193,19,-4,-11,3,4,13,48,16
1482546563419254,-15,-3,-27,-25,-4,6,71,14
1482546563419254,-1,-8,1,31,-11,-9,6,32
1482546563428234,-12,-6,16,-41,-2,-6,-32,-33
1482546563428234,4,3,-1,-19,-7,1,-25,-20
1482546563442808,12,19,13,56,21,3,-35,-8
1482546563442808,-5,-16,-24,21,9,1,-12,-9
1482546563451289,-12,-7,-71,-63,-28,-12,8,3
1482546563451289,-8,-10,9,-10,47,16,6,-3
1482546563465907,-2,0,35,-41,-19,-7,-15,4
1482546563465907,1,13,14,45,46,9,-18,-5
1482546563466896,26,26,65,40,-5,0,68,51
1482546563466896,-12,-18,-24,-43,-22,-10,-5,-5
1482546563478917,-25,-2,104,127,-5,-13,-25,-18
1482546563478917,19,6,-14,-68,-19,-6,-17,-22
1482546563488912,-4,8,36,22,10,-1,7,26
1482546563488912,-1,9,-25,-24,0,1,-83,-61
1482546563502959,18,-15,-59,-34,-1,6,72,57
1482546563502959,-18,0,0,6,-16,-7,52,-6
1482546563504946,-3,-3,15,9,9,7,-7,3
1482546563504946,10,-1,-28,7,-22,-10,-5,7
1482546563525987,-38,-2,26,28,11,-5,-41,-28
1482546563525987,41,3,25,-68,-12,6,-14,20
1482546563526938,-2,-13,-10,-20,-10,-2,-29,-42
1482546563526938,-7,4,25,43,6,7,-12,-9
1482546563538997,6,-29,-27,33,4,-7,52,23
1482546563538997,-10,9,33,18,0,3,5,20
1482546563556001,17,17,-26,3,5,8,-10,-6
1482546563556001,-24,-31,-32,-17,-35,-20,-6,4
1482546563563077,2,1,-39,-49,5,-3,-34,-18
1482546563563077,-10,-4,-12,-7,13,10,-3,0
1482546563565065,6,-2,64,12,1,-4,-10,-12
1482546563565065,-12,13,-17,-31,-14,-7,-34,-20
1482546563586136,2,-12,-11,-23,-5,9,66,54
1482546563586136,0,-15,-19,12,-12,-14,8,4
1482546563587081,-16,-2,-11,16,2,-2,-51,-41
1482546563587081,-4,7,16,3,8,5,63,44
1482546563599139,0,2,10,-6,-10,-4,-63,-40
1482546563599139,-3,4,0,3,-5,-7,-5,12
1482546563608227,7,1,8,33,4,6,1,5
1482546563608227,7,2,2,11,-2,-5,1,-2
1482546563623288,0,2,0,-18,-12,-2,-5,-6
1482546563623288,-8,3,21,21,-3,-3,-21,7
1482546563625233,-12,-14,-46,-24,6,-2,-6,-17
1482546563625233,-4,-1,-28,-42,9,5,-24,-23
1482546563645866,13,5,82,60,-25,-6,58,24
1482546563645866,4,4,-22,0,9,0,-3,-4
1482546563647819,-22,-13,-7,-96,27,13,29,22
1482546563647819,28,28,33,11,-11,-6,4,6
1482546563659129,-23,-43,-75,-53,4,-4,-36,-29
1482546563659129,-1,15,31,47,1,0,0,-4
1482546563668133,-4,-42,-82,11,-15,-8,-6,8
1482546563668133,1,-11,17,-25,-4,-5,5,2
1482546563683172,18,27,15,2,2,4,-12,-2
1482546563683172,-13,-15,9,-16,-5,3,-14,-25
1482546563685144,6,16,24,44,23,8,70,48
1482546563685144,-4,-3,37,-3,5,-3,-39,-14
1482546563706161,10,-2,-60,-10,-3,-5,8,5
1482546563706161,-30,5,-23,-7,-4,-4,-59,-54
1482546563707153,-12,-2,48,14,-12,-6,12,33
1482546563707153,-4,-11,-24,19,-4,-4,18,1
1482546563719141,6,9,25,-32,0,-4,-22,2
1482546563719141,9,-4,7,5,0,-1,-9,-5
1482546563728215,-18,1,-24,-4,5,5,-29,-36
1482546563728215,-3,-4,23,7,0,0,39,26
1482546563743332,-1,11,0,-6,1,2,-50,-21
1482546563743332,5,-5,-4,11,-13,-2,7,-3
1482546563745305,0,1,28,-39,-18,-7,-24,-5
1482546563745305,8,10,7,41,16,11,35,30
1482546563765389,-4,2,-22,7,12,5,-10,-11
1482546563765389,-9,-18,-22,-17,-16,-9,-13,0
1482546563767387,14,17,0,2,-13,2,54,18
1482546563767387,-8,-13,-23,-2,-3,0,-1,-6
1482546563779399,6,19,44,-4,1,2,-5,3
1482546563779399,6,8,-45,-36,15,5,23,19
1482546563788402,-2,-39,49,62,-8,-9,-42,-28
1482546563788402,11,13,5,-32,-1,1,0,4
1482546563803415,0,0,29,-3,8,9,-26,-14
1482546563803415,-19,-11,-52,18,-3,-9,32,28
1482546563804404,34,23,-24,-31,-1,-2,0,-6
1482546563804404,-22,-4,-13,-6,-6,-3,-17,-1
1482546563825470,12,-14,0,15,0,-3,-11,-17
1482546563825470,6,9,26,-14,9,11,7,18
1482546563827443,-5,7,-33,-20,-6,-9,-26,5
1482546563827443,5,5,3,16,-3,2,46,20
1482546563839597,10,-10,8,-23,-3,-12,-49,-32
1482546563839597,-26,-4,-48,-38,-5,9,54,12
1482546563848609,-6,-4,-12,0,-5,-2,-10,-23
1482546563848609,-6,1,-71,-5,8,3,3,14
1482546563863680,-7,3,58,-1,14,8,8,13
1482546563863680,17,23,123,99,-4,-7,-8,-8
1482546563864655,15,-28,-120,-81,-1,1,-15,-8
1482546563864655,-12,0,46,9,3,2,4,-12
1482546563885723,-2,6,-60,-40,3,6,17,11
1482546563885723,-7,-3,91,87,-12,-12,-37,-23
1482546563887667,11,12,30,18,-3,0,48,16
1482546563887667,-13,-3,-8,1,-3,-9,-82,-18
1482546563899736,-13,-11,-41,-14,2,3,82,49
1482546563899736,3,-1,-22,-37,6,3,-40,-40
1482546563915688,-5,8,27,37,3,2,39,29
1482546563915688,8,-8,-6,2,-5,-2,-14,-17
1482546563923719,-7,11,6,18,-4,-3,-24,20
1482546563923719,10,-30,-24,-41,-4,-4,33,-7
1482546563924699,0,10,17,9,1,-6,-123,-96
1482546563924699,14,8,36,5,10,19,127,95
1482546563945783,-11,-3,5,27,-7,-4,-45,-25
1482546563945783,19,8,18,-27,2,-2,-6,8
1482546563947773,-4,3,-59,-18,11,4,-55,-34
1482546563947773,-3,-9,72,52,-6,-3,-10,-24
1482546563959460,-6,-5,18,7,-6,-5,23,35
1482546563959460,1,1,-24,1,-12,-12,-20,11
1482546563968449,-5,0,-15,29,18,5,6,9
1482546563968449,8,7,-23,-38,0,0,-8,-8
1482546563983480,-10,3,-17,-8,3,5,-16,-19
1482546563983480,3,-9,28,7,-5,2,20,11
1482546563984466,-3,-1,33,-30,-25,-9,24,23
1482546563984466,8,-2,-10,20,12,-6,-25,-26
1482546564005478,6,12,35,9,2,1,-27,-32
1482546564005478,-6,-17,-54,-26,11,8,57,58
1482546564007492,-15,0,-3,22,-16,-10,-41,-13
1482546564007492,1,-8,17,-12,-8,-3,23,-7
1482546564028548,14,6,-15,0,2,0,63,26
1482546564028548,8,28,36,11,13,6,-26,11
1482546564029493,-41,-21,-50,9,-1,0,25,15
1482546564029493,-13,-9,35,-21,-16,-9,-32,-18
1482546564043541,-2,-1,38,31,-6,-8,-24,-19
1482546564043541,11,11,-22,-1,6,4,-11,-24
1482546564045067,8,12,42,-18,11,17,22,22
1482546564045067,0,6,-44,7,-2,-14,-81,-70
1482546564073648,2,-4,-36,0,-4,-1,73,68
1482546564073648,0,-7,6,-22,-9,1,0,-5
1482546564074661,7,10,35,23,9,-3,-1,6
1482546564074661,-7,2,-45,8,1,5,-6,-6
1482546564088659,-3,-12,18,-6,1,2,13,6
1482546564088659,-11,-4,-32,3,2,3,2,-7
1482546564089657,12,13,17,-22,-7,-3,30,8
1482546564089657,0,-18,-6,-15,-13,-7,-34,33
1482546564103680,-5,13,29,0,3,1,-73,-62
1482546564103680,-3,-12,-47,33,15,7,66,48
1482546564104667,5,-5,32,6,-1,0,0,-5
1482546564104667,-10,6,-18,-31,-29,-5,-17,-6
1482546564125738,-6,-9,-27,32,42,3,-61,-49
1482546564125738,2,2,16,-11,1,3,1,-8
1482546564127684,6,-3,-4,5,-2,2,51,64
1482546564127684,-5,7,21,-1,-5,-3,3,-4
1482546564148774,-5,-10,-4,-20,-8,-7,9,6
1482546564148774,0,6,-8,-10,-5,-6,-37,-34
1482546564150261,-4,-4,0,5,1,-7,-9,-11
1482546564150261,8,14,63,44,8,7,27,18
1482546564163394,1,-6,-66,-53,-20,-3,0,-2
1482546564163394,-25,-20,-34,1,2,-8,-25,-12
1482546564165340,6,-9,1,-17,-5,2,-14,-14
1482546564165340,-11,1,-25,7,6,-3,26,12
1482546564185412,-8,-4,29,13,-8,6,-6,-10
1482546564185412,0,3,-17,4,6,-14,-9,-3
1482546564187356,-14,-5,-3,-24,14,16,-5,-3
1482546564187356,4,-6,8,12,12,1,7,-5
1482546564208427,3,3,-88,-15,-10,-4,2,9
1482546564208427,12,6,17,-44,-17,-7,-78,-62
1482546564209400,-13,-23,-23,28,1,-3,69,84
1482546564209400,3,2,96,80,20,9,-20,6
1482546564222399,-4,-6,-69,-81,-25,-10,-25,-12
1482546564222399,9,-2,42,-7,0,3,8,8
1482546564229403,15,27,-9,-33,-3,-8,-35,-50
1482546564229403,-3,2,1,-12,2,5,13,11
1482546564246031,6,-4,62,79,10,-1,18,15
1482546564246031,-17,7,-14,-3,4,7,12,-10
1482546564247529,0,3,7,-3,3,2,-24,-11
1482546564247529,8,-8,-57,-22,-12,-13,-41,-16
1482546564268273,1,17,18,-5,8,16,49,11
1482546564268273,-2,-33,-23,-8,-6,-13,36,49
1482546564270222,0,8,19,12,-8,-5,-25,-27
1482546564270222,-5,-7,-28,-25,3,5,26,0
1482546564282281,-6,-8,25,21,-2,-5,-36,-12
1482546564282281,3,12,53,11,-4,-1,-25,-9
1482546564289286,-1,-10,-55,-17,-14,-6,-1,-4
1482546564289286,4,-9,10,30,-4,-6,-7,-3
1482546564305272,4,6,4,-52,3,8,1,-3
1482546564305272,-17,17,24,-13,-5,5,9,2
1482546564313248,-3,-15,-2,12,-1,-8,-10,-6
1482546564313248,-4,-3,-31,-8,-3,-5,-92,-57
1482546564328313,8,10,-33,13,-1,9,68,60
1482546564328313,-2,6,13,1,-4,-5,-25,-4
1482546564330269,0,2,23,15,8,5,-3,2
1482546564330269,-1,11,11,-16,-1,-4,-2,-16
1482546564342323,1,7,27,16,-4,-5,-9,-10
1482546564342323,5,-16,-38,-5,-4,-1,-12,-2
1482546564349840,-1,9,-8,-12,-5,-2,-10,-15
1482546564349840,6,6,-8,0,5,4,55,32
1482546564365441,-3,-4,41,-1,-3,-7,-63,-35
1482546564365441,3,1,3,-8,-10,3,54,22
1482546564367437,2,-3,4,36,14,0,-24,-9
1482546564367437,-4,0,-2,-86,-11,5,45,17
1482546564388454,-4,-5,15,76,2,-8,-5,-2
1482546564388454,3,-3,-25,-10,-3,1,-18,-13
1482546564389441,0,-3,12,1,-1,4,12,4
1482546564389441,1,2,-22,-10,-4,-3,-3,5
1482546564402464,-2,-5,19,0,-3,-8,-3,-6
1482546564402464,5,8,0,16,-8,-8,0,3
1482546564409470,-1,-12,-5,19,8,7,-7,-8
1482546564409470,-4,-3,-13,-2,8,1,-4,16
1482546564425482,2,4,5,-26,-2,2,-4,-4
1482546564425482,13,-3,22,28,10,8,-9,-5
1482546564427471,-25,0,1,12,-10,-7,-34,-12
1482546564427471,-1,-4,11,-20,-7,-4,32,14
1482546564448592,-12,-6,3,3,0,-5,40,35
1482546564448592,2,-2,-25,-31,-4,0,-11,-4
1482546564450046,16,2,0,-6,-3,-2,-12,-14
1482546564450046,-6,-9,-8,22,6,0,-8,-19
1482546564462769,-4,3,1,-18,-2,-3,-34,-24
1482546564462769,-3,3,18,6,5,4,22,23
1482546564469758,4,-1,-15,-14,-5,-6,11,3
1482546564469758,1,9,18,50,5,2,-7,-4
1482546564485785,3,-13,9,-17,-8,-2,-6,-7
1482546564485785,-6,-13,7,13,1,-2,-18,-12
1482546564487731,-1,12,59,-5,-5,-4,7,3
1482546564487731,4,-2,-30,-32,13,8,18,12
1482546564508775,-1,11,24,37,10,2,-11,-11
1482546564508775,-1,-25,-38,-65,-2,6,-5,-9
1482546564509746,5,6,8,14,5,-4,13,14
1482546564509746,0,-3,-13,-22,-5,6,32,16
1482546564521810,-4,-5,5,-10,-7,-8,6,9
1482546564521810,-6,1,8,1,-3,-6,-11,-9
1482546564530792,4,7,-29,-3,-4,1,-12,-13
1482546564530792,6,-22,-11,-6,-3,0,-5,0
1482546564545888,-22,-13,-56,-6,-2,-3,-3,-6
1482546564545888,-4,2,29,16,-8,-6,-8,-5
1482546564547841,0,2,-56,-1,6,4,12,8
1482546564547841,4,-2,29,-2,-10,-9,-12,-12
1482546564576051,6,5,-11,9,9,7,16,14
1482546564576051,-3,-2,-30,-16,-6,-4,-8,-4
1482546564577002,-8,0,53,26,-29,-8,-4,-4
1482546564577002,6,7,-11,-3,26,7,11,11
1482546564582127,8,-6,4,-15,-10,-7,-24,-14
1482546564582127,-1,15,23,10,29,7,17,4
1482546564591120,2,-8,-48,-12,-10,-1,4,5
1482546564591120,-6,4,20,38,-8,-2,-7,-6
1482546564606163,2,-8,-20,-43,5,7,-8,-5
1482546564606163,4,17,12,4,-11,-2,0,3
1482546564607132,-3,-9,-15,5,0,-8,-3,-3
1482546564607132,-6,1,42,-2,-1,-5,-19,-6
1482546564628293,8,-6,-42,7,7,6,7,-3
1482546564628293,-16,-2,2,10,1,1,-4,-3
1482546564630266,-1,-1,20,-27,-3,2,9,4
1482546564630266,-5,-3,-13,8,-3,-3,-10,-6
1482546564642288,-7,1,2,-16,4,0,2,0
1482546564642288,15,3,-19,7,-3,-5,-7,-7
1482546564650832,10,-9,36,-6,6,2,-12,8
1482546564650832,-8,-2,-16,-7,-15,-8,-14,-3
1482546564665956,0,-3,-4,13,-3,0,30,4
1482546564665956,-3,-3,-10,6,4,1,-16,1
1482546564666937,3,12,14,-8,7,4,-15,-9
1482546564666937,4,-20,-33,6,3,6,-25,-28
1482546564687970,-5,12,66,-4,-19,-12,17,12
1482546564687970,3,-3,-13,5,3,-1,0,-3
1482546564689967,-5,-4,-8,-33,9,11,7,1
1482546564689967,-5,0,24,22,-10,-11,-12,-8
1482546564701979,-1,3,-21,46,19,3,-15,-9
1482546564701979,17,1,8,-12,2,-2,2,1
1482546564710982,-15,0,-23,1,0,-1,-18,-15
1482546564710982,-5,6,66,-4,-4,3,23,23
1482546564726011,-5,-16,-72,-37,-14,-7,-9,-7
1482546564726011,2,22,80,28,-13,-7,8,6
1482546564726984,3,-14,-66,-4,5,5,1,-8
1482546564726984,6,9,2,-8,14,5,2,2
1482546564748577,-2,16,67,18,-4,1,17,17
1482546564748577,-12,-27,-84,2,-3,-7,-39,-18
1482546564750059,-3,-7,7,-33,-17,-3,28,17
1482546564750059,-1,-2,-22,-26,9,-7,-3,-8
1482546564762200,5,4,11,1,2,3,-20,-11
1482546564762200,-4,6,16,-2,2,4,15,4
1482546564771204,4,12,35,15,15,-2,-27,-20
1482546564771204,-7,-14,-61,3,-7,-7,16,39
1482546564785216,-7,-10,-15,-23,-8,-4,-26,-10
1482546564785216,-3,6,25,-30,-19,-1,-13,-1
1482546564787201,10,32,56,63,19,-3,12,13
1482546564787201,-13,-53,-69,-27,-3,3,-21,-27
1482546564808233,14,27,53,-4,-10,-3,-15,-13
1482546564808233,-13,-40,-46,5,2,2,40,23
1482546564810217,-3,8,28,-4,-17,-12,-55,-45
1482546564810217,13,12,31,10,-2,-1,-68,-72
1482546564822229,12,-11,-4,26,9,9,101,107
1482546564822229,2,7,-14,-16,-12,-1,-101,-46
1482546564831246,-6,0,-30,-26,-3,4,63,61
1482546564831246,-12,-17,-13,7,3,-2,0,6
1482546564845781,-8,-3,-3,4,-14,-9,-57,-52
1482546564845781,13,18,-10,-52,-7,-7,0,-8
1482546564847765,-2,12,24,30,5,-3,-23,-24
1482546564847765,17,1,-10,16,17,30,88,60
1482546564868387,-35,21,68,24,-5,-21,-65,-29
1482546564868387,0,-15,30,4,-2,4,34,19
1482546564869384,-3,-7,5,13,-8,-9,-58,-43
1482546564869384,-3,5,-13,-14,-22,-12,-75,-56
1482546564882442,3,25,-6,-32,-5,16,79,54
1482546564882442,-31,17,36,21,57,15,48,33
1482546564891013,-3,-22,11,9,-10,-12,4,11
1482546564891013,-1,-12,1,29,-9,-7,-34,-18
1482546564906009,14,-6,-21,6,9,1,21,-5
1482546564906009,1,6,-55,-15,-20,-8,-19,-7
1482546564908079,16,-3,15,-15,-8,2,22,16
1482546564908079,-14,10,-26,59,2,-12,-16,-13
1482546564927725,-37,-10,4,-57,17,13,-31,-30
1482546564927725,6,-9,36,14,-7,-4,8,2
1482546564929719,7,-15,-73,-31,1,1,-19,-12
1482546564929719,22,31,23,-4,-14,-7,-7,27
1482546564942262,-1,-24,-23,8,-2,0,-1,-11
1482546564942262,10,6,-6,25,12,11,6,1
1482546564951268,5,28,39,-11,0,-2,-25,-11
1482546564951268,0,-16,68,31,14,12,75,39
1482546564965790,-23,-53,-7,-67,-32,-20,-83,-51
1482546564965790,-20,4,81,85,-6,4,31,9
1482546564967274,23,-8,11,-11,21,2,1,-9
1482546564967274,-23,30,29,10,2,7,1,17
1482546564988514,39,9,-39,-11,58,19,-42,-51
1482546564988514,-27,-57,-59,-88,-61,-26,74,47
1482546564989490,-34,-19,59,49,-32,-20,-50,-15
1482546564989490,14,14,-22,-65,24,12,44,21
1482546565010531,16,16,-2,33,-1,-1,-22,-17
1482546565010531,1,12,-29,-31,28,12,-1,-2
1482546565012477,-4,-15,-24,49,-6,0,-11,-17
1482546565012477,16,-3,-10,-44,-18,-8,24,17
1482546565024513,-14,6,5,24,-26,-5,2,10
1482546565024513,19,6,-2,25,28,1,-27,-21
1482546565033492,-16,-9,0,-1,-2,0,-42,-42
1482546565033492,7,12,35,14,-2,4,47,34
1482546565048624,-3,-7,-27,4,0,2,51,24
1482546565048624,10,29,34,32,-23,-7,-49,-5
1482546565050092,11,-25,-4,-11,28,5,-20,15
1482546565050092,-7,-29,-5,-56,0,1,30,13
1482546565070390,-20,-11,30,41,-24,-13,13,9
1482546565070390,3,-2,20,4,6,3,-1,-8
1482546565072364,-3,7,9,19,13,7,-14,5
1482546565072364,-3,-9,-62,-51,-22,-13,-7,-14
1482546565085400,11,6,8,29,1,-2,-12,10
1482546565085400,13,3,17,-2,4,6,-8,-17
1482546565087375,-20,-13,75,50,4,5,41,27
1482546565087375,-14,-16,-110,-62,-25,-9,-45,-25
1482546565108417,13,16,96,-11,-21,-3,21,2
1482546565108417,-7,-3,-2,69,33,0,-23,-12
1482546565109390,7,10,-17,-3,14,14,60,29
1482546565109390,2,23,46,29,-4,-6,-36,-28
1482546565138438,-9,-18,-13,7,-16,-12,8,12
