timestamp,emg1,emg2,emg3,emg4,emg5,emg6,emg7,emg8
1482546054386724,-2,-3,14,37,3,-3,-23,-9
1482546054386724,1,12,13,-5,2,4,24,11
1482546054390784,4,-7,-2,5,4,4,0,0
1482546054390784,0,11,43,-4,-2,-2,-5,-3
1482546054391729,1,-2,-23,-17,-4,-4,-5,-9
1482546054391729,-2,-15,-3,35,0,2,-29,16
1482546054393790,2,4,4,-37,5,-3,-32,-58
1482546054393790,-10,-3,-3,11,3,10,45,19
1482546054398293,3,1,-6,-6,-8,-2,40,48
1482546054398293,4,2,6,4,-1,-6,-27,-17
1482546054405800,-10,1,-4,2,-1,3,24,23
1482546054405800,-8,-5,-9,-2,-6,-6,-28,-16
1482546054423555,46,1,19,-4,2,1,-14,-12
1482546054423555,-13,7,38,-8,-6,-1,10,-17
1482546054426556,-14,-6,-39,-2,-2,-2,4,21
1482546054426556,-7,-15,-65,0,2,-2,1,-6
1482546054438564,-17,10,63,-5,-1,1,5,5
1482546054438564,15,10,31,2,3,0,2,3
1482546054458614,-3,-12,-61,5,-2,-2,2,2
1482546054458614,3,3,-6,6,0,-2,-9,6
1482546054459615,-7,2,-18,-6,1,1,7,-3
1482546054459615,-8,-10,-25,-16,-5,-4,-9,-7
1482546054506196,1,6,79,-4,3,2,1,-1
1482546054506196,-5,-18,-11,-10,-1,-1,-3,-1
1482546054507184,-3,0,26,9,-7,-4,-2,-2
1482546054507184,1,-1,0,-12,5,2,-5,-6
1482546054510246,2,4,5,7,-3,-2,0,18
1482546054510246,-2,-1,-18,-9,-14,-9,-2,-8
1482546054510755,0,1,10,11,19,6,-21,-5
1482546054510755,-1,-4,-3,-15,5,10,-12,28
1482546054517785,-4,2,-24,10,5,2,-38,-15
1482546054517785,0,-8,17,-6,-2,1,17,9
1482546054523767,8,4,-44,0,-21,-22,0,2
1482546054523767,-26,-10,-27,0,-9,-10,-15,-19
1482546054531822,-5,-23,-10,-5,9,1,8,-3
1482546054531822,1,-9,-69,6,8,6,1,7
1482546054555990,-7,5,40,-24,-1,4,1,-4
1482546054555990,15,30,38,9,3,-1,7,-3
1482546054555990,-11,-49,-57,-6,-12,-6,6,-4
1482546054555990,0,19,53,10,8,0,1,-6
1482546054585034,-3,-8,-27,-2,-3,-1,2,-1
1482546054585034,1,0,-22,-19,-4,-1,5,-2
1482546054586012,2,15,13,40,2,0,6,-1
1482546054586012,4,8,15,-17,0,3,-5,2
1482546054592013,-3,-1,4,-20,-13,-7,-4,-3
1482546054592013,-1,-5,5,-4,2,1,7,-6
1482546054593013,3,8,-2,2,0,-4,-2,1
1482546054593013,0,1,-1,14,-2,2,-2,-3
1482546054615690,0,-1,-17,-39,-14,3,7,1
1482546054615690,1,-7,10,8,-6,-10,-6,-8
1482546054616639,2,9,38,-11,-1,-4,25,18
1482546054616639,0,-6,-49,6,10,8,0,-1
1482546054637656,-7,-14,8,-4,-3,-1,3,0
1482546054637656,1,1,9,8,-7,-1,-3,-4
1482546054638680,1,7,11,-3,0,-3,-14,-12
1482546054638680,0,6,16,-6,-4,-2,2,2
1482546054652696,4,1,26,24,9,-4,3,5
1482546054652696,-1,-10,-44,-34,18,16,9,1
1482546054652696,-5,1,48,14,-17,-2,-1,-4
1482546054652696,-4,-2,26,5,-7,-7,-6,-4
1482546054675683,1,-1,-27,-3,1,4,0,-5
1482546054675683,2,2,16,11,-4,-8,1,2
1482546054676684,1,1,-25,-19,1,3,1,0
1482546054676684,-3,1,1,7,-4,-5,-5,-3
1482546054698284,1,3,26,10,2,3,2,0
1482546054698284,-2,-2,3,22,3,-1,1,1
1482546054699234,7,2,-28,-19,13,6,2,1
1482546054699234,-6,-2,13,6,-3,-5,-4,-1
1482546054711975,-2,3,-17,8,5,-1,0,-2
1482546054711975,-2,-7,4,4,-6,-3,0,-1
1482546054712949,-2,2,-5,-9,-5,1,-1,-5
1482546054712949,-1,-5,4,-5,-3,-6,-4,-3
1482546054735057,-1,2,-6,4,10,2,7,1
1482546054735057,0,-8,-1,-1,-7,-2,-1,0
1482546054736003,-2,7,27,15,6,2,-1,-1
1482546054736003,5,7,-9,-15,-8,1,2,1
1482546054758075,-4,0,2,6,8,-1,-2,-1
1482546054758075,1,2,-4,7,-6,-2,2,-1
1482546054759047,1,4,2,-6,-7,-6,-4,-2
1482546054759047,-1,-2,-3,0,6,-2,1,1
1482546054772085,-3,-3,-8,-9,-11,-1,-5,-6
1482546054772085,1,4,24,10,4,-7,-3,0
1482546054773037,-1,-5,-20,-8,6,11,5,1
1482546054773037,-1,3,11,-8,-8,2,-1,-2
1482546054796162,-2,-3,5,8,4,-1,-1,2
1482546054796162,-1,-2,0,-19,-9,-2,1,-1
1482546054797123,0,-1,-11,0,-3,-7,-4,-2
1482546054797123,-1,-2,-6,6,3,0,0,-2
1482546054825259,1,1,-17,1,6,3,-1,0
1482546054825259,-6,-7,2,4,-2,-3,-2,0
1482546054826247,0,-7,-19,7,-8,-6,-3,-1
1482546054826247,-2,4,25,-9,-1,-1,0,-2
1482546054832317,1,2,1,-4,-4,-3,-2,-2
1482546054832317,3,5,1,3,6,6,5,3
1482546054833314,-3,-16,-22,0,5,0,-1,-1
1482546054833314,0,0,22,5,-2,0,-3,-1
1482546054855388,-2,-8,-9,1,-2,-2,0,-1
1482546054855388,-1,8,18,1,1,3,0,0
1482546054856360,1,7,3,-6,-3,-3,-1,-3
1482546054856360,-3,-2,-3,-5,2,-1,-1,1
1482546054878378,3,-7,-33,9,9,5,0,1
1482546054878378,-6,-15,-53,-33,-9,1,0,-3
1482546054878378,1,14,24,2,-1,-2,-2,-1
1482546054878378,0,-2,4,-6,-1,-2,-2,0
1482546054891383,-3,1,28,16,4,-1,-2,-3
1482546054891383,0,-1,2,5,-6,-4,-2,0
1482546054899978,-4,-1,-13,-23,-4,1,2,1
1482546054899978,0,-3,-12,-7,2,2,0,0
1482546054915537,1,4,17,-2,-7,2,-1,0
1482546054915537,1,0,-1,4,-3,-4,-3,-2
1482546054916525,-4,-6,-1,-6,-2,0,-3,-1
1482546054916525,6,0,-5,2,2,-3,-2,-1
1482546054937592,-5,-3,1,-4,1,2,2,1
1482546054937592,-1,3,8,6,4,-1,0,-1
1482546054938566,-1,-3,20,7,0,6,2,2
1482546054938566,-2,0,-41,0,-4,-8,-1,-2
1482546054951601,2,1,1,-2,2,0,-1,0
1482546054951601,7,4,14,5,-3,-3,-2,0
1482546054959605,0,2,29,-1,0,0,-1,-1
1482546054959605,-6,-7,-9,-2,-3,1,1,-2
1482546054975619,0,0,4,-3,-5,-4,0,-1
1482546054975619,0,11,0,10,5,3,1,2
1482546054976591,1,-3,-22,4,1,-4,0,-1
1482546054976591,3,1,9,1,-1,2,-3,-1
1482546054998171,0,-1,7,-3,-17,-8,-1,-1
1482546054998171,0,15,61,16,11,0,0,1
1482546054998642,-7,-25,-59,-47,-1,0,1,-3
1482546054998642,-3,8,6,13,-9,-3,-1,-2
1482546055011678,0,0,-7,-3,-2,0,-2,-1
1482546055011678,0,3,13,-4,-3,-1,-3,-1
1482546055020063,3,1,6,16,3,3,1,1
1482546055020063,-14,-2,-3,-4,3,0,-2,-1
1482546055035127,3,2,9,-7,1,5,-2,1
1482546055035127,-3,-11,-24,-4,-8,-11,0,-2
1482546055036103,-1,5,6,10,-9,-7,-3,0
1482546055036103,-1,-9,-7,-3,9,5,1,-1
1482546055058263,-2,-4,4,4,0,-2,-2,-2
1482546055058263,-5,-10,-19,-6,-4,1,-3,-1
1482546055059207,1,6,-8,-7,-5,-4,-2,-4
1482546055059207,1,-4,-4,-3,-5,-4,0,0
1482546055071273,0,3,17,2,3,4,0,0
1482546055071273,-1,-1,-36,-1,2,2,0,-2
1482546055080252,-3,4,20,-13,-8,-3,-1,1
1482546055080252,1,5,2,-1,2,-1,0,-1
1482546055095289,-4,-23,30,33,1,-6,-1,-3
1482546055095289,2,1,-46,-50,-10,3,1,-1
1482546055096237,-3,1,12,-1,-1,-1,-1,-2
1482546055096237,0,-5,-12,4,3,2,-1,-1
1482546055117888,0,8,3,-16,-5,-5,-2,0
1482546055117888,-2,1,21,25,15,4,3,0
1482546055118886,-5,0,1,9,-5,4,-1,0
1482546055118886,-3,1,17,3,2,-1,4,0
1482546055131899,9,-3,-33,-25,-1,1,0,-1
1482546055131899,-1,-12,2,4,-5,-4,-5,-1
1482546055139906,4,9,-13,2,-2,-4,-1,2
1482546055139906,-3,0,28,15,-2,-2,0,-1
1482546055154916,-10,-1,-30,-10,-4,-2,0,-1
1482546055154916,2,-1,19,4,1,3,1,-1
1482546055155912,-1,-1,14,-23,7,1,-1,-1
1482546055155912,4,6,8,22,-2,1,-3,-1
1482546055177931,-7,-15,-22,-19,-12,-6,-1,0
1482546055177931,-1,11,15,-3,3,0,1,1
1482546055178928,0,-4,-24,-10,0,-2,0,-1
1482546055178928,-4,-22,-3,-1,-4,-1,-4,-3
1482546055191942,2,16,26,-3,2,1,-1,-2
1482546055191942,-6,-3,16,41,1,1,-1,-1
1482546055199968,2,-1,-35,4,6,-4,0,-1
1482546055199968,2,11,10,-16,-4,-4,0,1
1482546055215092,0,-6,-9,8,5,4,-2,-1
1482546055215092,-1,-4,4,-4,-7,-7,-5,-1
1482546055215092,-3,-3,4,8,0,1,1,-1
1482546055215092,2,-3,-13,-8,3,3,2,0
1482546055238118,-2,3,-6,19,13,3,2,2
1482546055238118,3,0,-15,-2,-1,5,2,1
1482546055239091,12,4,21,-28,-10,-2,-2,0
1482546055239091,-14,-5,-68,-20,-8,-6,-3,-1
1482546055251127,13,-4,10,5,-6,-3,-4,-3
1482546055251127,1,1,11,-1,2,-2,0,-2
1482546055260134,1,-6,-33,13,-4,-4,0,0
1482546055260134,11,4,-3,2,0,0,0,1
1482546055275127,-3,4,1,-4,-10,-4,-3,-1
1482546055275127,-5,1,0,-23,10,-2,0,-2
1482546055275127,4,-5,-8,13,-6,5,0,-2
1482546055275127,-3,12,30,12,1,-1,-2,-3
1482546055298137,-6,-6,-37,-54,-14,-6,-1,1
1482546055298137,1,-1,52,23,19,10,1,-1
1482546055299637,-11,15,41,29,4,3,2,1
1482546055299637,-6,-21,-27,-4,4,9,0,-1
1482546055320655,-2,10,18,25,-7,-11,0,0
1482546055320655,6,-4,-47,-30,-21,-9,-5,-2
1482546055321654,-2,2,36,-3,4,-1,0,-1
1482546055321654,3,-19,-48,-2,-1,-1,-1,0
1482546055333662,-26,8,33,4,4,4,2,-2
1482546055333662,9,-3,23,-5,-3,-1,3,1
1482546055342681,-8,-4,-58,6,2,-2,-2,-5
1482546055342681,6,17,45,-3,-1,-1,0,1
1482546055357693,-7,-10,-22,-5,5,3,-2,-3
1482546055357693,-3,-1,-10,11,0,-1,1,1
1482546055359691,-1,-5,26,3,-4,-2,-1,0
1482546055359691,-2,12,10,-8,-6,-4,-2,-1
1482546055380711,7,4,-2,0,2,-2,-3,0
1482546055380711,-12,-14,-41,-3,-5,-2,-4,-2
1482546055381712,-9,-17,-7,-8,-5,-5,-4,-2
1482546055381712,5,2,16,-2,1,-1,-3,-2
1482546055393721,4,6,6,7,6,5,1,1
1482546055393721,4,4,-9,-7,-2,-1,0,-2
1482546055403245,3,1,-19,2,1,0,0,1
1482546055403245,-5,8,40,14,2,-1,-1,0
1482546055418428,1,-15,-36,-19,1,4,0,-1
1482546055418428,-1,2,-10,-18,-6,-3,-2,0
1482546055419415,2,3,3,11,4,-1,0,0
1482546055419415,-6,-4,18,10,-5,0,0,-1
1482546055440447,5,2,-21,-7,-2,-3,-2,-1
1482546055440447,-3,-2,-6,-7,1,1,1,-2
1482546055442445,-5,-3,8,1,1,0,1,-1
1482546055442445,1,-1,-11,-1,-4,-4,-3,-1
1482546055454459,0,-2,15,6,0,-2,-2,-1
1482546055454459,-6,-9,-10,0,-6,-6,-3,-2
1482546055463460,0,8,1,5,10,7,5,1
1482546055463460,4,-2,-23,-12,0,2,-1,-1
1482546055476472,2,4,35,4,0,3,2,0
1482546055476472,-7,-8,-52,0,-2,-4,-3,-3
1482546055485464,0,-8,-6,-8,-12,-6,-5,-1
1482546055485464,0,-2,29,-5,6,2,-1,0
1482546055500509,0,1,3,-1,-1,-1,-2,-1
1482546055500509,3,7,18,10,-2,-4,1,-1
1482546055502494,-4,-4,-8,2,5,2,1,0
1482546055502494,-4,-3,-14,-5,-1,-2,-1,-1
1482546055524040,2,1,0,2,-2,0,-1,0
1482546055524040,0,3,13,6,3,0,-2,0
1482546055526039,-2,0,-11,-9,-7,-3,-2,-1
1482546055526039,-1,-3,3,-3,-2,-4,-1,-2
1482546055536230,1,-4,-5,6,2,-3,0,-6
1482546055536230,-8,4,1,1,-2,4,5,-2
1482546055545324,2,7,18,10,7,3,3,-2
1482546055545324,-3,-8,-12,-25,-18,-10,-1,-1
1482546055560399,0,-1,-8,-2,11,9,3,3
1482546055560399,4,6,14,7,0,-1,-1,0
1482546055562335,-6,-7,11,-9,-6,-3,-5,-3
1482546055562335,1,4,-21,-5,-9,-5,-5,-1
1482546055583385,-3,-6,-2,22,17,-2,-1,-1
1482546055583385,2,-1,-4,-12,-11,-6,-6,-2
1482546055584351,1,2,-1,-6,8,9,3,2
1482546055584351,2,0,-4,-3,3,2,3,3
1482546055596402,-1,2,7,6,-8,-6,-4,0
1482546055596402,-2,2,10,14,3,1,1,-1
1482546055605879,0,-3,3,4,-7,-10,-6,-4
1482546055605879,-3,-4,-13,-7,-2,0,-2,-3
1482546055620512,-1,3,0,-5,-14,-3,-2,-4
1482546055620512,-4,-8,2,-16,1,-3,-3,0
1482546055622510,8,9,-1,11,7,8,0,7
1482546055622510,-7,0,2,4,6,2,7,6
1482546055642577,1,1,0,15,-2,-1,3,1
1482546055642577,-3,-7,3,-3,-1,-2,-2,-1
1482546055644512,1,6,-6,-38,-16,-6,-3,-1
1482546055644512,1,-5,2,10,10,3,-1,0
1482546055656586,-3,3,-4,-2,-7,-3,-2,-5
1482546055656586,-2,-1,12,7,3,-3,-44,-22
1482546055665526,2,-8,-34,18,7,5,49,28
1482546055665526,-15,-15,3,4,-3,-3,-8,-16
1482546055681563,-2,1,4,-12,-5,-2,2,4
1482546055681563,2,2,-5,-1,1,1,-2,-5
1482546055682562,-22,-30,14,4,5,4,-9,-9
1482546055682562,2,0,5,-4,-4,-2,0,1
1482546055703088,2,4,-5,-4,3,-1,-4,0
1482546055703088,-7,4,4,2,0,-1,-17,-15
1482546055704573,10,8,5,-4,-7,-8,1,19
1482546055704573,-7,1,-6,1,1,2,8,7
1482546055716705,7,-6,10,3,4,2,1,-4
1482546055716705,4,2,-14,-3,-3,-1,-3,9
1482546055725769,-3,1,29,-5,-5,-3,-10,-9
1482546055725769,-1,0,-20,5,2,-1,-3,-10
1482546055739818,-1,8,-1,-3,-3,-3,-10,5
1482546055739818,2,1,12,2,-5,1,18,8
1482546055746822,1,2,-47,1,-5,-3,-6,-15
1482546055746822,-1,-5,37,-25,-4,-1,-2,2
1482546055762777,-5,-15,-64,-72,-17,-2,2,-3
1482546055762777,3,0,5,25,6,3,18,9
1482546055764778,0,6,-6,19,1,-2,-5,-8
1482546055764778,1,-8,-78,-42,-3,-6,-12,-3
1482546055785815,-3,-6,16,7,-2,-2,1,0
1482546055785815,-6,-2,16,-8,-2,-2,6,0
1482546055786794,3,9,23,5,2,-2,-10,-1
1482546055786794,-1,2,27,29,0,1,0,-1
1482546055800323,6,2,6,12,13,7,9,3
1482546055800323,-13,-5,-27,-9,-2,-1,-1,1
1482546055806846,14,-1,17,4,-1,-1,-2,-1
1482546055806846,-7,-8,-27,-3,-2,-4,-7,13
1482546055823186,-26,0,26,1,-2,-1,26,-48
1482546055823186,30,-2,7,0,-4,-2,10,14
1482546055824187,6,6,-12,-7,7,8,3,-2
1482546055824187,-16,1,6,7,5,5,-8,-4
1482546055846265,-6,-15,-4,9,-1,-3,-15,6
1482546055846265,15,-2,2,-5,-4,-4,1,-3
1482546055851263,-6,-3,-3,-14,-7,-6,-7,-7
1482546055851263,17,8,7,9,3,3,9,4
1482546055860229,0,2,-9,11,1,-3,-10,5
1482546055860229,-9,0,-9,-10,-3,1,3,-2
1482546055866271,-2,-2,28,2,-5,-3,-3,6
1482546055866271,0,7,-6,-9,-5,-1,-3,-7
1482546055883287,3,-1,12,3,1,-4,-3,10
1482546055883287,-8,0,-7,1,4,4,9,-1
1482546055884248,-4,3,5,0,2,5,-7,-11
1482546055884248,13,6,26,9,-2,-4,5,-2
1482546055905777,1,-2,-8,2,-6,-7,6,8
1482546055905777,-1,-2,-2,-9,7,-1,-8,2
1482546055907272,-15,-7,-11,-6,-6,0,-17,-21
1482546055907272,1,7,-5,-10,2,1,17,7
1482546055919821,4,-5,-19,4,6,4,-4,5
1482546055919821,4,0,18,10,-7,-3,3,3
1482546055926875,-4,-13,21,8,1,-4,-8,-3
1482546055926875,-4,-15,-78,-5,1,-1,-6,-6
1482546055942890,3,9,28,2,-4,0,7,1
1482546055942890,-9,3,3,-2,-1,1,3,0
1482546055944889,-1,2,-11,-11,-1,-3,1,1
1482546055944889,3,0,23,8,-4,0,4,0
1482546055965884,-4,-2,2,4,0,-3,-14,-6
1482546055965884,20,3,-9,0,3,7,28,5
1482546055966852,-7,2,-15,-7,-1,-2,-13,7
1482546055966852,-3,2,42,4,-1,-3,-3,1
1482546055979916,-2,-1,-1,-2,-2,-4,-20,-7
1482546055979916,1,3,2,-8,3,5,-3,5
1482546055986993,-9,-2,-6,1,-3,0,39,13
1482546055986993,5,8,25,12,2,0,-5,-5
1482546056003023,13,-15,-41,-10,-4,-2,-2,1
1482546056003023,-8,6,0,-5,-4,-3,1,6
1482546056004511,-9,-9,16,2,-3,-3,-3,1
1482546056004511,-20,-7,-8,0,2,-4,-18,-28
1482546056025126,1,6,17,8,8,0,8,4
1482546056025126,-5,-2,-2,6,-1,5,-3,-1
1482546056027128,7,3,-36,-59,-7,1,-4,5
1482546056027128,12,8,29,2,5,0,4,4
1482546056040216,-1,2,-15,1,-3,3,-2,-2
1482546056040216,-10,0,13,15,-1,-6,-23,-13
1482546056046244,1,-4,6,12,-2,-4,-6,-8
1482546056046244,2,-3,-10,-7,-10,-3,25,28
1482546056063340,-7,7,19,7,-3,3,-1,0
1482546056063340,-6,0,-3,-3,13,5,-2,3
1482546056064281,11,-13,-19,-19,-8,3,-4,-12
1482546056064281,6,1,7,6,6,-1,-8,-3
1482546056085349,-5,3,9,13,-1,-3,-2,5
1482546056085349,-6,-3,-7,-21,-6,-6,-8,-12
1482546056087330,-4,-4,-40,24,18,-2,-30,-9
1482546056087330,-4,-2,21,2,-1,4,28,-5
1482546056108377,2,-13,-3,0,-4,3,36,22
1482546056108377,31,-7,-62,-1,-2,-3,-41,6
1482546056109887,-22,12,18,1,0,4,37,-27
1482546056109887,-14,-15,-5,-7,-3,0,41,53
1482546056122993,-5,2,-5,2,-2,-4,-18,-14
1482546056122993,3,0,10,-7,-3,-1,-4,1
1482546056124978,23,4,-9,-7,1,-2,-11,9
1482546056124978,-12,2,18,33,-5,-4,-27,-21
1482546056145057,1,-7,-33,-12,2,4,-8,1
1482546056145057,-19,1,13,-5,-10,-10,45,-5
1482546056146996,-12,6,26,5,2,-2,-13,-21
1482546056146996,2,14,29,20,5,12,2,-3
1482546056161027,-6,-28,-88,-29,-7,-6,15,4
1482546056161027,7,1,21,0,1,-3,-39,-17
1482546056168009,2,5,12,16,-6,-3,4,13
1482546056168009,10,4,-4,8,1,-1,1,0
1482546056183036,10,21,68,2,3,1,-27,-10
1482546056183036,-13,-19,-82,6,-5,0,19,15
1482546056185036,-5,-12,4,-49,-7,-6,-5,-4
1482546056185036,-2,1,-19,-8,-9,-5,-31,-20
1482546056205571,6,1,4,-2,-2,0,27,22
1482546056205571,-3,26,75,20,13,10,28,-7
1482546056207568,4,-18,-33,12,-5,-5,-27,15
1482546056207568,-2,-14,-37,-12,1,-2,-18,-25
1482546056219250,13,15,29,-1,0,-3,-16,6
1482546056219250,-2,-3,5,-3,-4,-2,21,32
1482546056228308,2,7,10,14,3,3,-4,-9
1482546056228308,4,0,-5,-12,0,3,25,20
1482546056242383,0,3,5,3,-6,-6,-52,-42
1482546056242383,2,-8,11,21,7,4,59,17
1482546056250347,3,4,-1,-10,3,5,19,18
1482546056250347,-4,-8,-18,-5,-8,-3,-28,-9
1482546056265397,-7,-1,82,-1,1,4,19,4
1482546056265397,-7,-3,-25,-7,-2,-5,-31,-22
1482546056267336,2,4,13,19,-3,-6,6,1
1482546056267336,5,-1,-7,2,1,0,3,-4
1482546056279408,-4,0,-20,0,2,3,5,19
1482546056279408,-5,-1,36,-8,-7,-5,-16,-21
1482546056288365,-2,3,19,5,-1,-3,17,8
1482546056288365,7,-12,3,-20,-7,-6,55,68
1482546056303392,4,5,-27,2,3,8,15,-8
1482546056303392,-11,-3,-20,-3,10,6,-32,-12
1482546056304884,-4,2,4,10,2,2,19,3
1482546056304884,0,5,-7,-27,-9,-5,-67,-48
1482546056325534,-8,-2,24,0,2,-5,37,18
1482546056325534,5,0,5,21,-16,-7,3,9
1482546056326539,3,9,61,4,2,0,-20,-20
1482546056326539,0,5,-31,-44,14,9,9,-1
1482546056339532,-9,-8,-4,-1,-10,-4,-16,-7
1482546056339532,-11,-2,31,2,2,6,-7,-10
1482546056348557,7,9,-15,13,-13,-14,-10,-2
1482546056348557,-4,-4,21,27,7,3,-2,-3
1482546056362566,1,14,17,4,22,2,7,7
1482546056362566,9,1,8,-4,-2,4,-13,-7
1482546056364562,-5,-20,-39,-75,-10,2,2,-4
1482546056364562,-12,-11,46,13,-9,1,5,3
1482546056385582,3,15,-3,32,5,-8,-19,-16
1482546056385582,-8,13,-11,-3,2,-5,0,2
1482546056387566,3,16,-36,22,3,3,0,0
1482546056387566,8,26,46,-1,0,-1,-6,-8
1482546056399606,-2,-9,-31,22,-11,-1,-7,-2
1482546056399606,2,-6,10,-70,-4,-4,-5,-2
1482546056408613,-1,0,3,-5,0,3,9,8
1482546056408613,-4,-1,12,27,0,-4,-7,-10
1482546056422889,1,9,-9,-1,-3,-2,-2,-1
1482546056422889,1,-26,-40,2,-2,-1,-1,2
1482546056424851,-2,8,3,7,1,1,-5,-7
1482546056424851,6,-15,-26,-8,-2,-5,-17,11
1482546056445864,-11,-9,0,-5,-1,0,-25,19
1482546056445864,-24,9,-8,-4,-1,-1,7,-13
1482546056446867,-3,1,-3,14,-1,-4,-10,-8
1482546056446867,4,3,35,15,-3,-3,-5,-3
1482546056459043,0,-17,-23,-45,-8,-4,-15,2
1482546056459043,0,-6,29,17,-4,1,45,44
1482546056468096,-17,-11,-21,5,1,-6,-9,-14
1482546056468096,-6,-2,-4,-1,0,-1,18,-6
1482546056483127,-2,-11,-2,-5,-2,5,10,-4
1482546056483127,6,-3,-15,0,-4,-3,-22,-13
1482546056484129,12,-3,31,11,4,1,1,5
1482546056484129,17,7,-40,-7,3,3,13,3
1482546056505706,-9,3,-4,-1,-1,-3,-20,-21
1482546056505706,-6,0,5,4,-3,-8,-22,-5
1482546056507201,-4,-3,3,1,1,9,19,15
1482546056507201,-3,4,-1,-2,-9,-13,-16,-10
1482546056518827,6,-12,-9,-1,-3,0,9,4
1482546056518827,8,-7,-33,-23,5,7,-19,-12
1482546056527841,-2,25,31,0,-7,-6,4,11
1482546056527841,-23,-22,-12,-2,3,2,-2,-7
1482546056542855,2,17,38,4,-2,-1,8,-8
1482546056542855,-8,-21,-7,-1,-5,-5,22,8
1482546056544853,16,-3,-9,-7,-2,-3,-76,-14
1482546056544853,-11,8,-46,0,3,10,93,29
1482546056565860,13,11,16,-6,-5,-10,1,17
1482546056565860,11,4,-2,3,-3,-7,-17,-7
1482546056566857,-13,-6,16,7,7,15,-2,-12
1482546056566857,26,1,-20,20,-5,-19,5,13
1482546056578986,-9,-3,-21,-29,23,21,-22,-12
1482546056578986,-18,0,-6,-10,-17,1,21,2
1482546056587956,19,4,-34,12,1,-3,36,21
1482546056587956,2,-12,-14,2,20,14,-47,-25
1482546056601632,-35,-3,7,3,-16,-9,38,30
1482546056601632,-1,-5,-4,5,-23,-29,-37,-9
1482546056610753,-6,6,15,5,28,15,10,-11
1482546056610753,9,21,23,-5,-15,-4,-20,-9
1482546056625913,-17,-21,-85,-25,12,13,18,-10
1482546056625913,13,3,16,4,-3,4,-3,-41
1482546056626890,-45,-64,-59,-4,-18,-18,-44,-6
1482546056626890,10,24,56,5,5,-2,8,-22
1482546056638919,-14,-31,-1,16,3,3,-3,-36
1482546056638919,-18,14,70,13,0,6,86,80
1482546056647928,12,6,54,-6,-1,-6,-38,-3
1482546056647928,-7,-58,33,-1,14,11,-38,-39
1482546056662965,-15,-51,-67,-15,-27,-14,21,12
1482546056662965,19,-6,-90,6,11,3,-32,-9
1482546056664916,11,29,108,-5,0,5,-10,-24
1482546056664916,-28,49,-5,-6,-7,-6,31,42
1482546056685956,26,-4,18,9,-2,-5,-12,-11
1482546056685956,18,20,-6,7,8,7,-20,-22
1482546056686933,-3,-18,-57,3,-4,1,20,37
1482546056686933,13,14,-25,-26,-12,-17,-17,-15
1482546056699172,50,1,10,16,-1,-14,-117,-65
1482546056699172,-74,21,7,-12,-1,1,84,62
1482546056708636,-7,-39,-16,-3,-1,1,-21,-39
1482546056708636,-9,-10,-2,-1,-2,3,-34,-26
1482546056722705,12,32,36,3,2,-1,55,35
1482546056722705,45,10,38,6,4,5,-61,-27
1482546056728723,-44,-12,-63,-8,-11,-10,26,-12
1482546056728723,-20,16,-14,8,2,-3,-39,2
1482546056745725,-25,-41,-8,-11,-1,-1,-61,-18
1482546056745725,23,32,16,-4,-2,6,5,-10
1482546056746710,-30,26,106,-3,-5,-5,33,53
1482546056746710,-7,-15,-64,-2,-1,1,-10,-23
1482546056767724,0,43,10,8,-1,-2,12,24
1482546056767724,-16,-22,-3,-2,5,-4,0,-30
1482546056769744,23,-6,-2,58,15,11,-5,24
1482546056769744,-18,-26,-7,-102,-5,1,14,19
1482546056782745,9,20,9,25,-17,-12,6,13
1482546056782745,-13,-22,-2,0,1,-4,-47,4
1482546056788754,20,-6,-12,-1,-1,0,48,64
1482546056788754,13,-4,-3,26,-5,-1,0,-3
1482546056805786,0,37,0,-17,10,17,-17,-24
1482546056805786,19,-25,-12,-9,-5,-16,-1,12
1482546056807286,-3,15,-17,52,-1,-3,54,1
1482546056807286,6,-2,5,-42,0,-5,-62,-8
1482546056827916,-26,-18,-9,4,-1,6,67,-9
1482546056827916,-35,-9,40,4,2,0,-34,-45
1482546056829913,-20,-24,-82,-37,-13,-8,-37,-30
1482546056829913,-8,3,65,51,-7,-4,23,19
1482546056841926,3,10,-26,32,7,2,17,17
1482546056841926,37,-4,-20,-32,2,8,-18,-6
1482546056848929,10,1,-28,-20,5,2,21,-9
1482546056848929,6,7,-42,-20,-2,6,5,0
1482546056865945,-25,0,90,34,-5,-6,-13,-7
1482546056865945,6,11,-26,38,16,2,27,21
1482546056866943,2,-16,-12,-8,-25,-16,-20,-14
1482546056866943,-2,-1,-17,-26,-6,3,-20,-18
1482546056887997,18,13,17,-37,16,3,-7,12
1482546056887997,-1,-5,8,76,-6,1,10,4
1482546056889943,15,15,9,-81,14,8,41,-36
1482546056889943,7,-10,27,123,-7,-4,60,81
1482546056902489,9,2,-53,-96,-12,-6,4,-56
1482546056902489,-23,13,18,26,-9,-9,0,-1
1482546056909488,-14,-28,-32,13,6,1,-40,-6
1482546056909488,-1,1,20,17,-2,-3,6,-14
1482546056925101,7,-9,-16,-13,-7,-2,7,19
1482546056925101,11,-2,-15,11,7,-2,6,9
1482546056927088,3,18,12,-40,3,10,-13,-9
1482546056927088,-8,-4,14,26,2,-3,11,-1
1482546056948118,-2,-11,58,3,-7,-8,-8,2
1482546056948118,4,9,30,-32,-3,3,-17,-10
1482546056949118,12,30,24,24,3,-6,4,15
1482546056949118,6,-5,7,-17,2,4,-1,-8
1482546056962173,-10,4,-8,39,-5,1,3,9
1482546056962173,-10,-34,-96,-81,-18,-10,3,1
1482546056969178,8,0,28,31,13,0,-1,2
1482546056969178,1,8,-24,26,15,5,5,-6
1482546056985233,-1,1,-18,-15,13,11,6,9
1482546056985233,-4,0,60,-18,-5,4,3,6
1482546056987234,10,4,-16,30,-15,-8,-12,-6
1482546056987234,-2,-11,-1,-34,-14,-10,-12,-14
1482546057007859,-3,-2,6,33,2,3,5,11
1482546057007859,3,-3,-17,-19,5,-5,-4,5
1482546057014325,1,-6,6,3,5,10,5,8
1482546057014325,0,-6,-3,-8,-5,5,6,0
1482546057021848,4,12,12,-3,-1,-6,-4,1
1482546057021848,0,-15,27,36,-4,-2,-2,-4
1482546057030850,2,10,-25,-32,8,-4,-6,-4
1482546057030850,-7,-3,41,-14,13,19,6,2
1482546057045926,4,11,-7,-14,-19,-14,0,4
1482546057045926,-6,2,-58,-21,-6,-5,-4,-3
1482546057046896,-6,-1,46,50,-5,-7,-7,2
1482546057046896,10,1,30,28,9,1,1,-3
1482546057067911,-9,-10,0,-43,3,2,-2,-1
1482546057067911,8,3,-4,22,-2,1,0,-2
1482546057069912,-4,1,30,-21,-8,0,0,-3
1482546057069912,-1,-1,-61,-44,-12,-12,-3,-2
1482546057081978,4,2,51,35,3,-3,-12,-4
1482546057081978,3,1,-6,48,16,8,5,0
1482546057090932,3,-1,-15,-41,-11,2,0,1
1482546057090932,0,1,-20,4,-1,-4,-2,-3
1482546057105550,-4,-10,-2,26,0,1,-1,-2
1482546057105550,-4,0,17,19,-3,1,-6,-3
1482546057107498,4,1,-6,-11,-3,-6,17,2
1482546057107498,-3,3,-4,-35,-7,-3,-4,-1
1482546057129311,2,-2,-30,-23,-4,3,6,4
1482546057129311,-2,1,10,18,11,6,0,0
1482546057131310,3,6,-7,-32,-4,-3,-5,-3
1482546057131310,-1,-4,22,18,-5,-4,2,-2
1482546057150339,0,2,-18,17,8,-1,2,0
1482546057150339,-4,-5,13,1,-12,-3,-4,-10
1482546057152337,-2,-11,-24,-1,3,5,-2,-1
1482546057152337,-1,9,0,-1,14,0,4,0
1482546057165350,-2,1,10,5,6,2,0,0
1482546057165350,-2,2,10,18,-4,-5,-2,2
1482546057167348,1,-8,-19,6,-3,-1,-22,-3
1482546057167348,-11,0,7,-38,-6,-1,25,4
1482546057188377,1,-3,-29,-30,5,2,0,4
1482546057188377,-2,5,18,-25,-3,-2,1,4
1482546057189363,-15,1,21,43,-7,-5,-4,0
1482546057189363,24,-1,-16,25,-4,-2,-9,-7
1482546057201897,-11,-10,20,-9,-16,-2,-2,-2
1482546057201897,-1,-3,-1,-7,17,3,5,1
1482546057210976,-1,-5,-6,-52,-15,-4,-3,-3
1482546057210976,-5,-4,-17,31,-1,-1,-7,-1
1482546057225545,7,5,-7,12,11,1,7,3
1482546057225545,4,1,-14,-38,-13,0,-3,-1
1482546057226548,1,-1,24,28,1,-1,4,-1
1482546057226548,-2,2,-10,-16,-1,-1,-2,0
1482546057247612,2,-6,-6,-9,-6,-3,-2,-2
1482546057247612,-6,-3,-12,-14,3,3,-1,0
1482546057249591,3,1,-12,9,3,-8,1,-1
1482546057249591,-1,0,11,6,-3,0,-1,-1
1482546057261623,-2,2,-1,-1,4,1,-2,-2
1482546057261623,-1,-2,-12,-6,-9,1,1,-1
1482546057270582,2,0,2,-1,12,6,5,2
1482546057270582,-1,1,14,7,4,4,-2,1
1482546057285641,-5,-3,30,42,-9,-6,-3,-3
1482546057285641,0,8,11,27,4,2,-1,-5
1482546057286587,5,-9,8,14,-11,-9,-6,-3
1482546057286587,-1,-4,-9,-31,-1,3,0,1
1482546057308121,1,1,6,24,11,18,2,1
1482546057308121,0,0,-13,-34,-7,-5,9,7
1482546057309621,-1,4,10,26,1,0,-2,-2
1482546057309621,-2,0,9,-27,-7,-4,-9,-4
1482546057321850,-1,-6,-15,24,-10,-3,-3,-3
1482546057321850,8,-3,5,-6,6,0,-3,-1
1482546057330801,-3,6,-6,-7,-9,-8,-1,-1
1482546057330801,0,-4,7,15,1,-4,-3,-1
1482546057345841,3,-1,-16,-24,6,6,2,1
1482546057345841,-5,-9,-13,-28,-7,-6,-1,0
1482546057346811,2,9,-6,-11,7,4,5,4
1482546057346811,-1,-7,-35,-16,-4,0,-3,-1
1482546057367882,-3,-18,33,52,-6,-11,-1,-1
1482546057367882,0,4,-18,-18,0,-4,-3,-2
1482546057369855,-1,-4,13,22,-9,-1,-1,-1
1482546057369855,-8,-11,21,13,-14,-6,-7,-6
1482546057381877,8,6,-14,-29,15,5,4,4
1482546057381877,-2,2,-48,19,-7,1,0,0
1482546057390871,-3,-5,-7,-27,4,1,-3,-2
1482546057390871,6,-4,0,-5,12,-1,-5,-1
1482546057405911,-9,1,5,12,-24,2,0,-3
1482546057405911,2,2,24,-16,15,-7,0,0
1482546057407431,3,5,4,6,-3,-3,-2,0
1482546057407431,-7,7,1,25,3,4,3,2
1482546057427461,-3,-3,-1,-26,-5,-7,-5,-2
1482546057427461,-1,-2,19,-27,-10,5,2,2
1482546057429444,0,-10,-69,-52,-8,-6,-4,-3
1482546057429444,-1,2,8,33,24,0,2,2
1482546057441471,1,6,-16,-6,-5,1,1,2
1482546057441471,-1,2,17,1,2,5,2,1
1482546057450458,-1,-1,15,48,5,-1,0,-2
1482546057450458,-3,1,-1,-41,-7,0,-3,-2
1482546057465526,1,1,-35,-34,9,-3,-4,0
1482546057465526,4,-1,29,61,-19,-8,-4,-2
1482546057467499,-9,-7,41,-8,-6,2,-1,-1
1482546057467499,13,1,-9,17,6,8,6,2
1482546057487541,-3,-4,-17,-37,-9,-8,-2,-1
1482546057487541,-3,-1,-10,-13,9,0,-5,-5
1482546057489515,-2,-2,-18,0,0,-2,-2,-1
1482546057489515,-4,2,13,2,-17,-8,-4,-2
1482546057502093,2,0,6,6,24,24,6,0
1482546057502093,2,5,5,4,-10,-19,-1,0
1482546057511079,2,1,-1,0,10,9,4,2
1482546057511079,-4,-3,0,17,5,1,-1,-1
1482546057525196,1,3,10,5,-9,-9,-6,-4
1482546057525196,-6,-6,-7,8,1,6,-1,-3
1482546057527182,1,5,8,-22,-12,-5,-2,1
1482546057527182,0,-3,-21,-29,4,0,0,0
1482546057548307,-3,-4,-1,19,27,5,-1,-1
1482546057548307,-5,-3,0,42,21,8,0,-3
1482546057549252,0,1,11,-30,-5,1,3,0
1482546057549252,-2,2,6,-29,-18,-1,2,1
1482546057570295,0,2,-7,2,-5,-7,0,1
1482546057570295,0,-2,-11,-16,-1,3,0,0
1482546057572268,2,4,11,15,4,5,2,1
1482546057572268,-3,-4,-26,17,6,-4,-2,-2
1482546057585297,3,3,17,-25,-7,-6,-1,-2
1482546057585297,-4,-6,-4,-4,-3,-4,-3,0
1482546057587293,-2,3,13,14,3,1,2,-2
1482546057587293,-4,0,-2,14,4,4,0,-2
1482546057608423,3,11,10,2,-16,-12,1,0
1482546057608423,-2,-15,-29,-28,-4,-2,-3,-2
1482546057609922,-6,-16,-19,7,4,2,-2,-4
1482546057609922,6,5,10,-2,-1,-3,-2,1
1482546057621404,-9,-2,5,-2,-5,3,0,-2
1482546057621404,-12,-3,13,5,-2,-2,-1,-1
1482546057630388,1,0,-3,18,7,-2,-3,0
1482546057630388,-3,-1,2,-16,-2,-4,0,-2
1482546057644421,2,-2,-3,-7,-6,-1,0,0
1482546057644421,6,2,4,-10,-1,3,-3,0
1482546057651403,-2,-3,-6,-33,-9,-2,1,0
1482546057651403,-1,0,-2,73,36,8,2,2
1482546057668416,-1,4,-11,3,0,-7,-2,0
1482546057668416,1,2,9,-14,0,2,2,-1
1482546057669415,2,4,-2,9,-7,-4,0,1
1482546057669415,-1,2,4,-27,-20,-5,-2,-2
1482546057681448,-6,-6,6,8,2,1,1,-2
1482546057681448,1,1,-29,-2,-6,-1,-4,0
1482546057690433,-1,3,5,-2,-5,1,-1,-3
1482546057690433,-4,-5,-12,-12,-2,-1,0,0
1482546057705027,-3,-8,-3,8,-2,-3,-3,-1
1482546057705027,1,0,6,-12,-5,-3,0,0
1482546057712007,8,5,2,8,4,1,-1,-1
1482546057712007,-4,0,3,2,-6,-3,-1,-1
1482546057728129,1,-5,-4,-5,-1,4,1,-1
1482546057728129,1,3,-3,0,0,3,1,1
1482546057734188,-2,-4,0,4,4,-2,-2,0
1482546057734188,0,-2,12,-8,-8,-3,-4,-3
1482546057750200,-2,-2,-5,-5,-3,-3,-2,-2
1482546057750200,0,1,13,9,7,1,0,-1
1482546057752176,-2,-3,-1,19,-4,-3,-2,-2
1482546057752176,0,-4,-10,-31,4,4,0,-1
1482546057765187,0,-1,6,8,0,-4,-2,-2
1482546057765187,-1,2,4,14,6,4,2,0
1482546057771217,-1,2,-20,-8,27,18,4,2
1482546057771217,-3,-1,3,-1,-18,-17,-2,-2
1482546057788229,-1,-3,18,-16,0,3,0,-2
1482546057788229,-2,-5,7,17,5,-6,-4,-4
1482546057789178,-3,2,-8,14,-6,-1,-2,-2
1482546057789178,0,-1,-8,1,-4,-4,-2,-1
1482546057810766,3,2,-12,-9,-1,4,0,2
1482546057810766,1,-1,-4,-16,-10,-3,-1,0
1482546057812263,-15,-2,11,-9,-2,-4,-2,-3
1482546057812263,2,-2,-2,5,-2,2,-2,-2
1482546057824432,-2,-1,-15,1,-7,-7,-2,-3
1482546057824432,0,1,6,-23,-1,2,1,-1
1482546057831505,5,2,4,13,-4,-4,0,-1
1482546057831505,-1,0,9,-2,-1,1,-1,1
1482546057847540,4,-4,-2,13,-1,-3,0,-1
1482546057847540,-4,3,-9,-3,4,4,2,3
1482546057849514,6,-1,2,-19,0,-3,0,2
1482546057849514,-9,1,7,24,-5,-3,0,-2
1482546057870558,2,1,-9,-28,-2,-4,-3,-2
1482546057870558,-2,-3,-3,-3,-5,-3,-3,-1
1482546057872502,3,-3,-11,-9,0,0,1,-2
1482546057872502,1,-1,20,23,-12,-3,-2,-3
1482546057884511,-4,-3,-21,25,6,2,1,0
1482546057884511,3,3,34,-9,2,4,3,0
1482546057893517,-5,-4,-2,-4,-11,-8,-4,-4
1482546057893517,3,-1,-22,-11,10,8,1,2
1482546057908099,0,0,-6,-32,-6,-2,-1,-1
1482546057908099,1,0,-25,40,-11,-3,-2,-1
1482546057909590,0,-1,27,-6,6,2,0,0
1482546057909590,0,1,-9,-3,-3,-3,1,0
1482546057930767,-2,-9,-1,-5,-3,0,14,3
1482546057930767,0,1,-5,-1,4,3,-19,-8
1482546057931765,0,2,-3,19,-2,-3,-11,-2
1482546057931765,-2,0,10,-8,3,2,3,-5
1482546057943778,3,5,20,10,1,0,24,24
1482546057943778,0,1,-14,11,0,-2,-2,-1
1482546057952769,-3,-4,14,-10,-5,-4,-9,-4
1482546057952769,-2,-4,-15,-16,0,-1,-6,-7
1482546057967795,0,-1,-25,0,-1,-2,-8,-7
1482546057967795,-3,-2,36,5,1,-3,5,4
1482546057969793,1,3,-15,-12,-4,5,5,2
1482546057969793,1,2,-3,6,3,-2,-3,2
1482546057990793,-2,1,13,-25,-3,3,-19,-10
1482546057990793,3,-1,-8,14,-5,-5,17,11
1482546057991823,6,0,-25,-32,3,1,3,-4
1482546057991823,-4,-1,20,-2,-3,0,10,3
1482546058004336,-3,-1,11,32,-3,-2,-12,-6
1482546058004336,-2,-3,-26,-13,5,-2,-3,-4
1482546058020990,2,-4,4,20,-8,-1,6,6
1482546058020990,-3,-3,40,40,-8,-6,-7,-5
1482546058028022,-3,3,-11,-10,5,-2,-4,-3
1482546058028022,-1,0,-18,-19,-10,-6,-1,-3
1482546058029967,0,-2,0,-56,18,14,11,3
1482546058029967,4,6,-7,12,10,2,-6,6
1482546058050019,-2,-1,-4,-4,-9,-4,-2,-3
1482546058050019,-6,-5,12,2,-10,-7,-7,-7
1482546058051998,0,3,-6,2,-10,-3,0,-3
1482546058051998,-2,-2,-3,31,13,5,3,-3
1482546058064047,1,0,9,-29,-2,-7,0,-5
1482546058064047,-3,-3,-11,-5,7,6,-5,-2
1482546058073027,-2,-2,2,13,-2,-6,-11,-7
1482546058073027,1,-1,-9,-14,-1,-1,14,13
1482546058088066,-1,0,6,27,1,-1,-4,-3
1482546058088066,1,-2,0,-9,-4,0,-1,-1
1482546058090014,-5,-3,-3,5,-4,-5,-1,-1
1482546058090014,0,-3,-2,-19,-5,1,-2,-4
1482546058110604,-1,-3,-5,7,4,1,3,1
1482546058110604,5,1,1,-21,-4,-2,6,1
1482546058112592,-8,1,1,16,1,-1,-8,-2
1482546058112592,1,-3,-13,-11,-1,-1,1,-1
1482546058124266,-2,0,-1,-9,-2,3,0,1
1482546058124266,1,-1,25,28,9,7,1,-7
1482546058133298,1,-2,-27,-14,-17,-7,-3,-2
1482546058133298,2,0,-18,-4,17,-1,-3,1
1482546058155338,-5,-4,77,69,-2,-11,-1,-4
1482546058155338,-1,1,-29,-7,-8,6,1,1
1482546058157314,0,-2,13,12,29,14,6,2
1482546058157314,-4,1,-22,-56,-33,-13,-4,-3
1482546058170350,2,0,3,7,17,8,1,-1
1482546058170350,1,-1,-4,2,2,-8,-3,2
1482546058172297,1,-4,8,14,-9,-3,0,1
1482546058172297,-3,-1,1,-6,-6,-3,-3,-5
1482546058193342,-2,-3,-13,-7,-1,3,0,-1
1482546058193342,0,1,16,-14,-7,-3,0,0
1482546058194312,5,1,-19,36,3,2,4,3
1482546058194312,-2,-2,7,-14,-4,2,-6,-2
1482546058208397,-2,-2,-8,-7,-13,-7,-13,-7
1482546058208397,2,0,-5,-4,7,5,31,12
1482546058209899,0,0,5,5,-3,-3,-8,-4
1482546058209899,1,-1,-1,9,4,0,-2,-1
1482546058230533,1,-1,-4,-5,-3,3,-4,-1
1482546058230533,-4,-3,-8,-7,-2,-2,1,-3
1482546058232507,-3,-3,3,-4,-9,-8,-1,-1
1482546058232507,-1,-2,2,-6,2,-1,-5,-1
1482546058244547,0,2,-9,-14,2,7,11,5
1482546058244547,-3,-3,4,17,-5,-7,-10,-5
1482546058253523,-4,0,-3,-64,-10,-4,3,-1
1482546058253523,0,-3,-15,12,21,8,-2,-2
1482546058267561,-1,0,-12,-9,-6,-3,2,1
1482546058267561,-2,-3,0,-3,-8,-6,-8,-1
1482546058269533,-3,-1,23,56,0,-3,-5,-4
1482546058269533,1,0,-6,-25,-9,-1,5,2
1482546058290576,-2,-5,-11,5,-1,-1,-4,-2
1482546058290576,-1,2,-7,-11,-1,0,0,-1
1482546058292550,-2,-5,-10,-10,-6,0,2,1
1482546058292550,-1,0,3,-22,-5,-2,-15,-4
1482546058304148,-2,0,-4,9,18,5,22,8
1482546058304148,-2,-1,0,11,-10,-4,-10,-3
1482546058313599,1,2,0,4,5,0,0,0
1482546058313599,-1,2,6,17,0,0,-2,-6
1482546058327765,-1,-2,-8,-20,-13,-7,-3,-2
1482546058327765,-4,-3,-4,-7,6,2,-11,-3
1482546058329763,1,2,7,-1,5,0,-3,-2
1482546058329763,-2,-2,-3,-4,-10,-4,1,-1
1482546058351777,1,2,1,3,1,-1,-3,-1
1482546058351777,1,-2,3,-4,4,2,3,0
1482546058353780,2,-1,-6,-8,0,5,5,6
1482546058353780,-2,-2,1,7,0,-2,-1,1
1482546058363790,3,2,3,3,1,2,3,-1
1482546058363790,2,-1,-6,-6,5,3,-3,-2
1482546058372793,-3,-1,4,-7,-4,-5,-3,-3
1482546058372793,0,-2,-7,7,5,2,6,2
1482546058389804,-2,0,-3,-3,-8,-5,-6,1
1482546058389804,1,0,-5,-7,2,1,-19,-5
1482546058390794,-1,2,14,19,6,4,31,10
1482546058390794,-3,-2,3,7,-12,-4,3,-2
1482546058410884,0,-2,-16,-29,18,7,-9,-2
1482546058410884,-4,-1,5,46,-2,-1,-3,-3
1482546058412372,-2,0,-27,-42,-2,-2,-6,-3
1482546058412372,1,-3,23,25,-5,-12,-3,-2
1482546058424030,-2,-1,-5,6,-5,2,-5,-4
1482546058424030,-1,3,9,1,0,0,10,3
1482546058433032,-1,1,0,0,0,-2,-6,-2
1482546058433032,1,-1,-9,-3,3,5,3,0
1482546058448044,2,-1,-5,-4,-5,-3,-12,-9
1482546058448044,-2,-2,0,-12,-2,2,14,5
1482546058449030,-3,-1,-2,6,-6,-2,-2,-2
1482546058449030,-2,-2,0,-16,0,0,-7,-1
1482546058470060,-1,-1,0,8,-4,-4,-1,-1
1482546058470060,-3,3,9,-7,-1,-1,-9,-7
1482546058472061,6,0,0,-1,0,-3,15,7
1482546058472061,0,-7,-13,-3,-2,0,-4,-7
1482546058484073,-4,0,4,0,1,-2,6,12
1482546058484073,-2,0,0,-2,-3,-4,-1,2
1482546058493074,-3,-1,4,-1,1,-1,2,0
1482546058493074,0,4,4,1,-1,1,4,0
1482546058508107,-1,-4,-12,-3,-3,2,0,0
1482546058508107,2,1,8,-7,-7,-9,-3,-2
1482546058509609,-1,-2,-7,24,10,-1,-6,-2
1482546058509609,-3,-2,8,-16,-18,-1,-3,-1
1482546058530245,1,1,-13,-24,15,9,1,-3
1482546058530245,-4,-6,-9,-4,-3,-3,3,2
1482546058532244,-2,-1,1,-17,0,2,-9,-6
1482546058532244,2,3,-6,20,7,0,2,4
1482546058544256,7,3,7,-1,-4,-5,1,2
1482546058544256,-4,-7,-5,25,-1,-2,0,-2
1482546058553259,1,-1,8,-33,-7,-7,-7,-2
1482546058553259,-2,-5,-11,-17,-2,-1,0,-2
1482546058568276,4,-1,0,2,-5,-6,-9,-4
1482546058568276,-9,2,9,3,7,2,-3,-20
1482546058569256,2,1,-6,5,-4,3,16,36
1482546058569256,0,-8,-32,-6,1,2,-10,-11
1482546058590288,-1,6,18,0,-1,1,18,5
1482546058590288,-1,-10,0,-14,-2,-1,-23,-16
1482546058592287,-3,-3,-4,2,-4,-5,6,8
1482546058592287,-6,0,7,-4,2,-3,-10,-3
1482546058604321,4,2,16,17,1,2,1,-5
1482546058604321,10,-4,-26,-14,-2,1,5,13
1482546058613324,-17,-1,12,5,0,-1,-11,-20
1482546058613324,3,1,5,12,5,-3,10,10
1482546058627823,-7,-1,-10,-4,-10,-10,-9,-13
1482546058627823,0,8,6,-4,2,3,4,10
1482546058629825,2,-5,-40,-16,-2,0,-14,-8
1482546058629825,-2,0,46,-2,-20,-4,-9,-4
1482546058650839,-9,-5,16,51,32,14,18,10
1482546058650839,2,7,-20,-36,-10,-4,-1,-1
1482546058651840,4,-5,9,36,1,-3,-1,-7
1482546058651840,1,2,-31,-6,-3,1,5,5
1482546058673855,3,2,-2,-31,-3,-3,-11,-7
1482546058673855,-10,-9,-1,18,2,0,4,2
1482546058675856,-2,-1,-10,0,1,-4,-5,-8
1482546058675856,-1,-1,18,6,8,1,3,1
1482546058687866,1,-1,-19,8,-7,-6,-24,1
1482546058687866,5,3,19,-17,8,6,44,21
1482546058689867,0,3,2,0,-8,-3,-5,-5
1482546058689867,9,-5,-20,16,6,-2,-26,-23
1482546058710886,-23,11,55,-23,-8,1,22,27
1482546058710886,-8,-30,-91,-8,-6,-5,-19,-23
1482546058712387,1,3,66,4,-2,0,5,1
1482546058712387,1,-2,1,-33,2,-1,5,2
1482546058732494,6,1,9,7,-4,-2,-10,3
1482546058732494,4,10,-22,10,-4,-2,-4,2
1482546058740499,-4,-1,11,9,-8,-4,-2,-6
1482546058740499,0,6,35,4,3,3,0,3
1482546058747546,-5,-6,-35,-29,-10,-4,2,-4
1482546058747546,9,12,47,-2,4,-3,0,-1
1482546058749532,-14,-14,-27,52,-18,-3,-9,-4
1482546058749532,4,20,106,36,15,-1,11,9
1482546058770563,-7,-29,-99,-36,-8,0,7,1
1482546058770563,10,11,23,0,11,2,-4,6
1482546058771535,-1,-1,-41,5,4,-4,-13,-22
1482546058771535,-6,-5,-18,-35,-8,-1,3,4
1482546058792578,2,4,16,-24,-6,-2,3,-5
1482546058792578,-5,0,21,21,-3,2,-4,1
1482546058794552,5,-3,-9,-30,7,3,15,9
1482546058794552,-5,0,-24,9,2,2,3,4
1482546058807612,2,-5,0,12,2,-2,-7,-11
1482546058807612,-2,-4,-29,-56,-3,1,-12,4
1482546058814115,2,10,76,61,-2,0,30,15
1482546058814115,-4,-7,-73,-33,2,-3,-1,-5
1482546058830828,5,10,43,-8,2,-1,-1,1
1482546058830828,-11,-9,-15,4,-17,-7,-11,-10
1482546058831797,11,6,10,0,13,2,-9,-4
1482546058831797,-10,0,1,5,-4,3,3,5
1482546058853014,-4,-8,-26,15,3,0,-2,-3
1482546058853014,-1,12,30,25,4,1,7,4
1482546058854976,2,1,-16,-68,-3,-2,-5,-1
1482546058854976,4,-1,-21,19,-3,0,3,1
1482546058867004,2,7,12,-1,0,-2,-8,-6
1482546058867004,-2,-5,14,15,-2,-1,-8,-8
1482546058874029,-7,-9,-15,-3,-7,-5,-21,-4
1482546058874029,3,3,7,7,2,1,10,1
1482546058890043,7,0,-5,5,-2,-1,-4,4
1482546058890043,-3,-1,-5,-6,0,0,24,27
1482546058892015,-2,2,4,-4,2,2,-10,-24
1482546058892015,3,0,-5,-18,2,0,-3,4
1482546058913055,2,-5,-4,14,-5,-8,-14,-13
1482546058913055,-4,-6,3,6,-2,-4,-7,4
1482546058914538,0,3,-14,-16,2,2,0,7
1482546058914538,-2,-6,-2,7,-3,-3,-2,-8
1482546058927632,0,2,0,20,-2,-2,7,3
1482546058927632,1,3,26,3,2,1,0,-6
1482546058934650,-2,-1,-20,-8,2,2,2,2
1482546058934650,0,-6,10,12,-9,-5,-2,-2
1482546058949664,-3,-3,-23,5,-3,-2,-1,3
1482546058949664,-7,-5,40,-11,3,0,1,-10
1482546058957673,1,0,3,16,-4,-3,-3,-1
1482546058957673,0,0,-4,16,-7,-6,1,7
1482546058972679,0,6,12,-20,20,11,4,1
1482546058972679,4,4,-21,-13,-4,0,0,-7
1482546058974677,-9,-5,5,-13,-1,-1,-3,5
1482546058974677,0,-6,-22,-24,-7,-4,-4,0
1482546058987703,-2,-3,3,-16,-9,-3,1,-3
1482546058987703,2,-1,5,8,1,0,-1,-3
1482546058993733,2,1,-5,-7,5,2,0,6
1482546058993733,-3,2,1,6,6,2,5,0
1482546059010739,-3,-9,-9,0,-6,-5,-14,-5
1482546059010739,1,0,-11,2,2,2,10,5
1482546059012229,2,4,13,13,-5,-3,1,-6
1482546059012229,-2,-2,-25,-21,4,4,-3,-3
1482546059033302,3,2,20,3,-1,-1,-4,-6
1482546059033302,-10,3,-13,12,-3,-4,-8,-7
1482546059034268,14,19,35,-19,6,4,7,12
1482546059034268,-15,-38,-63,-3,-3,-2,-5,-14
1482546059047332,-11,2,-43,-31,-10,-5,-5,1
1482546059047332,-3,-12,41,3,9,-2,-6,-8
1482546059061342,-3,-2,11,24,-3,-1,-2,-3
1482546059061342,6,18,21,6,10,5,-1,6
1482546059070350,1,-2,15,9,-5,-2,7,3
1482546059070350,6,-1,-45,-3,-4,-3,3,0
1482546059072322,8,3,-2,-24,-2,-2,-1,7
1482546059072322,-10,-9,11,-16,1,3,4,-1
1482546059093341,-3,-8,-34,15,-10,-2,-3,-3
1482546059093341,6,10,8,-8,1,0,5,7
1482546059094311,0,-4,-13,-2,-1,-1,-2,-6
1482546059094311,4,7,6,-13,-4,-3,-12,1
1482546059107408,1,5,16,18,2,2,18,7
1482546059107408,-7,-11,-8,-9,-6,-3,-13,-6
1482546059114376,-7,-2,-27,9,-2,-3,5,9
1482546059114376,5,0,12,41,-6,-7,-6,-5
1482546059130011,-6,1,27,-21,3,1,-2,-3
1482546059130011,-11,3,-13,10,0,1,-13,-4
1482546059132008,-2,-4,-19,-14,5,4,26,9
1482546059132008,0,6,15,-4,0,-1,-1,2
1482546059153028,6,-3,-13,-4,1,0,-2,1
1482546059153028,11,4,-6,-2,-1,-1,2,4
1482546059159031,-14,-5,-13,12,-3,-3,-12,-15
1482546059159031,-2,3,38,-21,-3,-6,-5,-1
1482546059167033,5,3,22,11,-1,2,9,5
1482546059167033,0,-2,-16,-19,0,0,-14,-9
1482546059175117,0,-10,-10,14,0,0,25,5
1482546059175117,2,0,-4,13,1,1,-20,10
1482546059190157,10,12,47,10,1,-2,18,-14
1482546059190157,-20,-22,-34,-10,-4,-1,3,3
1482546059192130,-2,3,25,0,-1,-2,-20,-8
1482546059192130,-9,2,-22,-1,5,4,3,-9
1482546059213191,20,-2,5,6,-5,-4,-52,-16
1482546059213191,-6,5,29,3,-6,1,58,40
1482546059214678,1,-12,-24,-30,-3,-1,-6,-4
1482546059214678,-5,-2,-7,1,-8,-4,10,4
1482546059226263,-5,-2,-5,25,21,1,-28,-14
1482546059226263,11,5,-4,10,14,1,-8,-13
1482546059235273,-6,-1,-11,-1,-4,2,-10,-1
1482546059235273,6,4,-4,-54,-8,-2,-4,-2
1482546059250322,-10,-13,7,16,3,-2,17,10
1482546059250322,2,1,1,3,-3,-2,-9,-10
1482546059252293,2,10,52,6,7,0,5,2
1482546059252293,2,5,-17,16,-2,-2,-2,-4
1482546059273326,-2,-3,-11,-9,-8,-2,7,3
1482546059273326,-10,-6,-3,-3,-2,-1,0,0
1482546059274281,4,1,-5,4,-2,-2,-18,-10
1482546059274281,1,4,3,-1,1,1,10,2
1482546059286347,-9,-3,0,17,-3,-1,0,-2
1482546059286347,16,7,-14,-1,2,1,0,-1
1482546059295323,10,-8,-14,-34,-5,-2,3,0
1482546059295323,-25,-11,19,17,-6,-4,-15,-6
1482546059310900,-4,2,-35,-35,-6,-3,5,-1
1482546059310900,1,-5,27,-9,5,-2,2,0
1482546059312398,4,3,-6,1,-5,0,-6,-3
1482546059312398,5,-4,7,2,5,1,17,3
1482546059332523,-3,0,1,-22,-4,-2,-21,-7
1482546059332523,0,6,13,15,-9,-4,-8,-4
1482546059334495,-3,-2,-9,27,7,2,4,4
1482546059334495,1,-5,6,-20,-2,5,-9,-6
1482546059346532,-3,2,-5,17,-10,-2,10,11
1482546059346532,1,0,-8,-13,-4,-1,-2,-8
1482546059355483,-7,-2,7,-2,2,-2,-7,0
1482546059355483,5,1,-4,9,0,-1,-10,-2
1482546059370549,-2,-3,-14,-4,2,1,23,2
1482546059370549,-2,0,23,11,-1,-1,-4,-3
1482546059372494,2,-2,-18,-10,-6,-4,-8,-2
1482546059372494,-9,0,-7,-24,1,-1,-16,-8
1482546059393511,-2,1,11,13,10,1,21,12
1482546059393511,-2,0,4,-4,-3,-1,-12,-6
1482546059394510,-4,5,-23,3,0,2,6,-2
1482546059394510,0,-8,-2,-40,4,4,4,1
1482546059406634,11,-5,4,75,-1,-3,-3,1
1482546059406634,11,-3,-8,7,-7,-4,-3,-1
1482546059415665,-22,-5,18,-6,2,-1,-6,-2
1482546059415665,5,10,6,19,3,1,21,-1
1482546059430819,1,5,-4,-24,-1,-1,-25,-6
1482546059430819,-11,-1,-8,-22,1,0,-1,-12
1482546059431767,-3,-1,-4,8,-5,-2,-5,5
1482546059431767,-3,-4,-13,18,0,-2,1,-1
1482546059452802,-4,-1,11,-13,-3,-2,-9,-5
1482546059452802,2,1,-6,6,-2,0,-2,-12
1482546059454803,10,-3,-1,-14,2,1,-8,0
1482546059454803,-16,-1,-1,4,-2,-2,8,4
1482546059466843,3,-6,-25,-3,-2,-1,13,10
1482546059466843,-5,2,12,-1,-8,-5,-14,-2
1482546059475913,2,-4,-15,-12,0,-1,18,1
1482546059475913,15,-2,21,69,0,2,-5,1
1482546059490950,-5,-1,-5,-19,-4,-2,-18,-16
1482546059490950,-5,-1,10,-6,2,2,-13,-6
1482546059491924,0,3,6,-4,0,-1,31,8
1482546059491924,6,-8,-24,-15,0,-1,17,6
1482546059513055,-5,-1,0,-4,-2,-3,-8,-5
1482546059513055,-3,0,11,5,-6,-4,-20,-4
1482546059515004,0,-8,-15,-3,11,3,-9,-3
1482546059515004,-1,3,2,10,-12,-5,2,-1
1482546059526614,-1,3,-3,-3,11,4,4,2
1482546059526614,7,3,11,0,-1,-1,8,10
1482546059535652,8,-8,-9,7,-8,-1,-8,-4
1482546059535652,-2,0,11,-9,2,0,2,3
1482546059550688,-8,-4,3,-9,-3,-5,-12,-10
1482546059550688,6,5,-18,21,2,3,10,10
1482546059551632,-11,-2,-2,11,-4,-2,7,-8
1482546059551632,7,3,6,-24,1,2,-7,0
1482546059572703,-15,-11,-32,16,-11,-8,-12,0
1482546059572703,-7,-2,-3,3,5,0,3,-1
1482546059574648,-1,5,10,-2,-1,-1,-24,-5
1482546059574648,9,-1,-3,-7,-1,1,51,31
1482546059586690,3,3,10,-11,1,2,-3,-4
1482546059586690,-10,-5,-20,-16,-2,2,16,11
1482546059595788,2,-2,2,17,-5,-3,-11,-8
1482546059595788,-4,-1,-3,2,3,-1,-17,-9
1482546059610885,3,2,8,-1,3,2,10,5
1482546059610885,0,-5,-18,-27,-3,-2,-4,1
1482546059612384,4,1,4,-48,3,2,9,2
1482546059612384,-9,-3,-1,15,-7,-6,-17,-12
1482546059632487,-2,0,18,14,-8,-7,-2,0
1482546059632487,2,5,13,-7,0,-1,-2,-6
1482546059634482,-3,-6,-69,4,1,-2,2,3
1482546059634482,11,0,-3,-3,-6,1,-5,-4
1482546059655503,-24,-5,4,-7,6,1,4,-3
1482546059655503,1,7,-2,-21,7,4,6,3
1482546059656499,3,-2,33,30,-13,-7,-4,-4
1482546059656499,-16,-18,-21,-49,-2,-3,-8,-8
1482546059670604,9,3,10,0,-1,-2,4,4
1482546059670604,-3,-3,-13,10,-3,2,-2,0
1482546059672551,0,7,27,4,2,-8,-8,-6
1482546059672551,6,3,-24,8,1,-1,-15,6
1482546059692621,2,6,10,-5,3,7,33,20
1482546059692621,-4,-5,-9,-11,1,-4,-2,-15
1482546059694594,16,4,15,2,-1,3,-6,9
1482546059694594,-13,-9,-15,21,1,-2,0,-7
1482546059715659,4,1,8,-18,-2,-1,-7,11
1482546059715659,4,2,-18,12,0,-1,-2,1
1482546059717163,-2,-3,15,7,0,0,1,-3
1482546059717163,2,7,-1,-8,2,0,-1,-5
1482546059730727,1,-2,-4,-4,-3,3,-4,-6
1482546059730727,4,1,29,31,-5,-13,-1,-1
1482546059731719,-10,-1,-2,-4,0,3,2,-1
1482546059731719,-5,3,8,13,12,4,4,1
1482546059752788,12,-2,-23,-12,-6,-1,-2,-5
1482546059752788,-14,-5,6,5,-5,-1,-7,0
1482546059754739,-7,-3,-12,-20,1,-2,-1,-3
1482546059754739,3,3,13,11,5,3,1,0
1482546059775802,4,-2,-4,-31,3,3,-2,-2
1482546059775802,-3,-2,-5,6,9,8,7,5
1482546059776750,-3,-7,52,61,-12,-8,-5,-2
1482546059776750,-8,3,-23,-21,-8,-4,1,-2
1482546059789817,1,-1,0,16,5,-1,-4,-8
1482546059789817,4,-1,-21,-8,-2,-2,3,6
1482546059796819,-2,1,-3,-14,4,2,-13,-9
1482546059796819,7,1,20,11,-5,-2,4,5
1482546059812853,-3,-1,-12,-6,-7,-6,-15,-5
1482546059812853,4,-2,7,6,3,2,25,15
1482546059818859,-1,2,-9,-22,-2,0,4,0
1482546059818859,4,-4,-6,-1,-4,-5,-11,-7
1482546059834951,-2,-3,-2,2,-2,-2,8,3
1482546059834951,-1,0,5,5,9,7,-5,0
1482546059836948,-1,0,-16,-32,-2,-2,0,2
1482546059836948,-1,-2,-1,-6,0,-5,-1,-3
1482546059849961,0,3,46,25,-6,-6,0,-8
1482546059849961,17,-1,-26,-9,-4,3,-8,-4
1482546059856954,-23,-11,-30,-7,-1,-5,-1,-9
1482546059856954,2,3,9,3,2,0,-3,-2
1482546059873017,-2,-1,5,10,4,3,2,2
1482546059873017,-2,-1,-2,-12,2,-4,-3,-3
1482546059874961,8,4,0,17,3,6,5,4
1482546059874961,2,-5,-41,-92,-8,0,0,0
1482546059895984,-8,-5,19,91,-4,-7,-6,-3
1482546059895984,2,-2,-11,-40,-8,-3,-2,-1
1482546059897006,4,3,-5,-3,7,-1,-9,-2
1482546059897006,-5,0,6,27,-6,-1,6,0
1482546059910103,1,0,9,-30,-6,-2,5,-1
1482546059910103,-3,-4,-6,8,4,4,1,-4
1482546059917056,-12,-1,0,7,-8,-2,-10,-11
1482546059917056,11,-2,14,10,3,-1,-1,10
1482546059933181,1,-1,-25,-24,2,5,-1,5
1482546059933181,11,1,21,19,-5,-8,3,-3
1482546059934153,3,2,-7,-14,0,0,7,-3
1482546059934153,5,1,18,17,3,3,-6,-11
1482546059955196,-11,-7,-29,-31,4,1,2,9
1482546059955196,-4,-1,26,29,-7,-4,-8,-8
1482546059957141,5,0,-10,-21,0,1,5,5
1482546059957141,-2,0,9,6,-4,-5,-6,-3
1482546059970181,6,3,12,-10,8,4,0,-3
1482546059970181,-7,-6,-43,25,-5,4,-3,-3
1482546059976210,-2,-5,2,11,-8,-13,1,1
1482546059976210,-4,3,5,35,6,5,-10,-5
1482546059993221,15,1,-20,-44,-5,-5,9,7
1482546059993221,-28,-4,-1,-7,6,1,-4,-4
1482546059994175,0,1,20,3,-1,3,-1,1
1482546059994175,-2,-5,-16,12,6,4,3,1
1482546060015748,-1,0,5,15,3,4,0,1
1482546060015748,4,1,6,-16,-5,-8,-9,-2
1482546060017207,3,-1,-1,3,-1,2,5,3
1482546060017207,-8,-2,3,-16,-1,-3,-2,-1
1482546060029359,-7,-3,-4,-7,-9,-7,-7,-6
1482546060029359,4,1,14,13,5,1,4,4
1482546060036365,-4,-3,-13,-52,4,1,1,-2
1482546060036365,2,1,-2,7,-5,-1,3,2
1482546060054377,-7,-1,-14,9,0,-2,-4,-4
1482546060054377,2,-1,23,-13,-9,-1,-4,-1
1482546060056360,6,0,6,27,3,2,5,4
1482546060056360,-3,-2,-21,-26,3,-1,-1,-1
1482546060075374,-8,-3,27,34,-4,-1,1,-2
1482546060075374,2,1,-7,-2,6,-3,-6,-3
1482546060077389,2,0,-7,-24,-11,-2,-1,-1
1482546060077389,8,-1,14,5,1,9,21,-6
1482546060089405,-1,-2,-21,-9,3,-9,-38,-10
1482546060089405,-8,-3,5,-10,-1,-2,9,4
1482546060098404,4,1,9,36,4,-2,7,1
1482546060098404,-2,1,-1,-4,-7,0,-19,-7
1482546060113000,-1,0,0,-12,2,5,10,1
1482546060113000,0,-2,-10,18,-1,-6,-1,0
1482546060114997,6,0,11,9,-4,-2,-5,-3
1482546060114997,-23,-2,2,3,-6,-4,-2,-8
1482546060135216,5,0,-1,2,7,6,12,1
1482546060135216,-1,1,5,-25,1,0,-5,1
1482546060137189,-5,-3,13,6,0,-2,5,0
1482546060137189,6,-1,-20,17,-6,-11,-8,-1
1482546060149207,-6,-1,31,27,1,3,0,-3
1482546060149207,1,0,-67,-32,-6,-4,23,1
1482546060158203,-1,-1,-7,-44,6,5,-24,-1
1482546060158203,6,-1,19,16,-8,-8,3,4
1482546060173246,-5,1,-4,-15,-1,0,-7,-12
1482546060173246,12,2,36,17,-1,-1,9,6
1482546060174187,3,-3,-10,1,3,1,-6,-4
1482546060174187,-13,-6,-2,-16,-3,-6,-1,11
1482546060203265,-5,1,-10,-2,-1,1,7,-2
1482546060203265,-3,3,20,7,-2,0,-7,-4
1482546060204744,3,2,-8,27,6,3,10,6
1482546060204744,1,1,15,-18,3,3,-7,-4
1482546060209275,-1,-3,-4,1,-3,-5,19,2
1482546060209275,-3,-1,6,4,-6,-4,-25,-3
1482546060218348,-1,-3,-16,-1,6,7,-21,-8
1482546060218348,4,2,1,2,-9,-11,23,19
1482546060232547,-1,-4,-14,21,1,4,33,-5
1482546060232547,-1,-2,-2,-32,-10,11,-23,14
1482546060234520,-9,-2,6,10,-5,-15,-1,-7
1482546060234520,-2,1,7,3,7,7,-12,-7
1482546060255590,7,0,1,10,0,-3,-5,4
1482546060255590,0,-2,-11,-6,6,1,7,-5
1482546060257536,0,0,2,1,-4,2,20,24
1482546060257536,1,2,2,6,-1,-6,0,-5
1482546060269545,1,0,-13,-18,-4,-2,5,0
1482546060269545,-6,-2,1,8,0,-2,-21,-29
1482546060278556,-2,0,3,-7,-1,1,-4,13
1482546060278556,1,-2,-4,7,2,-3,-3,-7
1482546060292618,0,-3,-4,-13,-4,-1,-2,6
1482546060292618,1,0,-1,-1,1,0,8,-4
1482546060294591,-2,0,5,7,-5,-7,-3,-13
1482546060294591,9,-2,-8,-5,3,4,-2,1
1482546060317198,-6,0,3,-11,-3,-2,-12,-1
1482546060317198,0,1,-2,3,0,-3,3,2
1482546060318649,-7,-5,4,11,-8,-8,23,-8
1482546060318649,6,2,-5,2,5,3,-12,3
1482546060329379,3,0,10,5,-3,-2,-10,-1
1482546060329379,-2,0,-3,-4,-1,-3,5,1
1482546060338360,0,-9,-14,-5,-4,4,11,5
1482546060338360,-3,1,-2,-5,0,-2,2,-1
1482546060353348,-2,1,0,-3,-2,0,-9,-1
1482546060353348,0,-3,1,6,1,7,6,4
1482546060354342,0,6,7,3,-4,-8,-9,-5
1482546060354342,-6,-7,-21,-9,-5,-4,-3,-8
1482546060375413,-2,1,-2,-9,0,-4,-9,0
1482546060375413,2,-8,19,3,1,0,9,3
1482546060377358,-2,1,-28,-11,1,4,-8,-4
1482546060377358,-6,-1,21,0,0,-1,0,-2
1482546060389513,2,0,-22,-1,0,-1,3,2
1482546060389513,-4,4,18,3,-2,-5,-4,-1
1482546060398520,-1,-7,-9,-9,1,0,-2,-3
1482546060398520,0,4,18,18,4,3,4,2
1482546060413080,-1,-8,-17,-6,-1,-3,-1,2
1482546060413080,-3,1,-1,-2,-1,-4,-5,-4
1482546060414578,0,-2,4,8,-8,-9,-5,0
1482546060414578,1,2,-7,-22,12,11,6,0
1482546060436692,1,5,7,8,0,-3,-3,-2
1482546060436692,-1,-5,10,-5,-4,-3,-5,-1
1482546060438708,0,3,-18,0,0,1,0,0
1482546060438708,7,-4,2,-2,-6,-5,-1,-2
1482546060448720,6,10,7,0,-2,1,0,-2
1482546060448720,-14,1,-13,-1,-1,-2,2,-2
1482546060457724,-12,-7,13,-1,1,0,-4,-3
1482546060457724,-2,-11,1,1,-6,-4,-1,-1
1482546060472731,-8,-13,-2,-4,2,0,-4,-2
1482546060472731,16,16,5,17,1,9,7,3
1482546060478739,-8,-7,4,-37,-4,-4,0,0
1482546060478739,-8,-2,-23,11,3,-2,19,0
1482546060495751,6,-1,12,0,3,5,-16,0
1482546060495751,0,0,6,1,-4,-4,-2,0
1482546060496740,3,4,6,-1,0,7,2,-3
1482546060496740,2,6,-5,-3,-8,-5,1,1
1482546060509371,-8,-11,-2,-14,-3,-4,9,1
1482546060509371,2,6,-4,12,10,-1,-6,-1
1482546060518407,5,-1,-3,10,7,4,11,5
1482546060518407,6,6,12,-7,-6,-3,-19,-4
1482546060532054,-13,5,-51,-1,-5,-1,-1,2
1482546060532054,-12,-25,6,-15,-6,-4,10,3
1482546060539055,10,-2,3,0,-2,-4,-6,-5
1482546060539055,14,3,14,5,-3,-1,0,5
1482546060555067,-17,8,13,11,-2,1,-28,-18
1482546060555067,5,-6,-14,-35,6,5,26,17
1482546060557011,-3,11,-14,2,2,0,-3,0
1482546060557011,-4,1,20,9,3,2,3,0
1482546060578081,15,-1,28,-3,-13,-7,0,-1
1482546060578081,7,-14,-33,10,-1,-5,-10,-6
1482546060579055,-16,7,-6,7,6,4,-6,-6
1482546060579055,-6,-15,-4,-9,-1,1,2,0
1482546060592092,-1,4,-1,-14,0,1,12,5
1482546060592092,-8,-10,18,3,1,-1,-7,-5
1482546060599097,6,6,18,-3,-6,-5,-14,-3
1482546060599097,-7,-7,-15,10,5,4,-3,0
1482546060615632,9,17,60,7,1,-2,37,10
1482546060615632,-4,-3,-40,5,-4,1,9,17
1482546060617115,9,-29,-27,-17,-8,-2,4,-24
1482546060617115,-19,4,-18,-2,-3,-9,-36,-28
1482546060638237,-4,-9,5,0,-2,-1,7,12
1482546060638237,3,27,30,6,1,1,-1,-7
1482546060639217,12,-7,-4,8,1,-1,8,12
1482546060639217,-6,3,4,-7,-4,0,21,9
1482546060652244,3,-4,-12,-3,1,-3,-13,-11
1482546060652244,-12,-18,-46,-5,-7,-7,-3,-4
1482546060659248,-6,24,9,5,1,1,-9,2
1482546060659248,10,-12,-4,-3,4,5,-1,-2
1482546060675261,-3,18,4,6,8,8,-3,8
1482546060675261,15,-14,9,0,-3,-4,-27,-15
1482546060677259,-1,2,-29,-13,-9,-5,17,8
1482546060677259,-8,14,65,8,2,6,-10,-3
1482546060698353,-23,-19,-67,-11,-10,-19,13,1
1482546060698353,15,4,22,-10,-4,4,-6,-6
1482546060699325,6,27,26,11,8,3,-13,-14
1482546060699325,13,-12,15,0,0,3,25,24
1482546060711909,-13,-3,-16,-1,2,6,-10,-45
1482546060711909,-4,26,6,2,-8,-7,-13,14
1482546060720916,-15,-5,5,7,-2,-1,-19,-6
1482546060720916,-9,-21,-29,-6,9,-1,41,-5
1482546060734943,7,5,46,-4,1,2,-46,-16
1482546060734943,-2,-15,-17,4,-1,0,38,24
1482546060736941,3,10,21,5,-2,-3,10,10
1482546060736941,-14,9,-2,-2,-22,-6,-18,-11
1482546060757959,34,-1,2,-9,13,-1,-91,-26
1482546060757959,-20,-8,3,14,10,14,88,39
1482546060759959,2,-13,28,3,0,-1,18,86
1482546060759959,7,9,-52,4,0,1,-6,9
1482546060771970,4,-3,-19,-3,-4,2,-5,-5
1482546060771970,-3,5,5,-7,-8,-13,-36,-33
1482546060778959,6,4,14,3,3,8,11,-2
1482546060778959,0,10,5,0,6,0,23,17
1482546060794986,-31,-38,31,-3,-9,-1,34,30
1482546060794986,5,10,2,-29,6,3,-7,-12
1482546060796969,-8,-17,51,21,-8,-9,3,-16
1482546060796969,15,5,24,-22,4,-1,-15,-5
1482546060818022,10,9,8,16,-11,-8,-3,4
1482546060818022,-3,8,29,-6,-4,2,-14,3
1482546060820005,6,-2,-55,38,25,22,-17,-4
1482546060820005,-11,-15,-30,-46,-11,-3,29,8
1482546060831755,0,-2,30,81,-2,-5,-30,-4
1482546060831755,8,1,-39,-74,-2,-4,-70,-80
1482546060840835,11,16,41,-2,-3,3,65,47
1482546060840835,-19,-10,-40,33,-2,-5,-30,-10
1482546060855843,-9,-4,0,-5,0,0,31,-1
1482546060855843,32,4,8,15,-2,-4,16,19
1482546060856817,-17,-12,-17,-9,3,-6,-40,-43
1482546060856817,9,19,38,23,-2,1,-8,-11
1482546060877887,4,-4,-34,-51,-9,2,13,29
1482546060877887,-26,-4,-60,2,4,-2,15,-12
1482546060879863,-1,-5,35,-24,2,0,-7,-17
1482546060879863,1,-6,-73,-9,-11,-9,-20,-17
1482546060891900,24,11,25,25,9,9,18,15
1482546060891900,-16,-6,6,-3,-24,-8,-22,-6
1482546060900875,-3,-16,-79,-22,0,-7,-11,-6
1482546060900875,-20,-12,27,-95,-18,-9,-8,-51
1482546060915936,0,-1,18,8,10,0,-46,-14
1482546060915936,0,-2,-24,-12,1,0,11,7
1482546060917437,-3,2,71,54,0,-3,-8,-22
1482546060917437,8,14,26,29,10,7,-2,19
1482546060937534,-3,-6,-27,-29,-10,-15,12,-11
1482546060937534,-4,-7,36,33,4,0,-11,-2
1482546060939518,-6,12,-32,-43,-4,-3,-2,-1
1482546060939518,12,-9,39,38,28,1,-24,6
1482546060951529,-6,-2,22,67,1,13,29,16
1482546060951529,-4,30,-26,-19,-15,-7,-13,-5
1482546060960535,1,-27,-42,-19,2,-8,-9,-11
1482546060960535,3,9,-57,-12,-4,10,13,8
1482546060975549,-3,12,27,2,23,8,18,-1
1482546060975549,13,-4,33,52,16,5,13,14
1482546060976573,3,30,60,-9,-22,0,-4,-4
1482546060976573,-6,4,58,90,4,-3,-1,9
1482546060997618,-4,-13,-70,-112,-20,-12,-12,3
1482546060997618,-3,1,41,10,0,-2,-19,-4
1482546061003592,1,2,-6,14,10,3,-22,-11
1482546061003592,22,-6,30,9,-6,1,16,41
1482546061013113,-6,3,12,14,-4,-5,24,22
1482546061013113,-7,-10,10,3,0,-4,-1,6
1482546061020614,0,6,10,-14,5,8,-27,-4
1482546061020614,-4,-7,-91,-63,-6,-3,20,3
1482546061035135,1,-5,5,31,-10,-5,28,7
1482546061035135,2,-7,10,-13,-4,0,13,9
1482546061037107,-5,-11,-8,45,-13,-3,2,0
1482546061037107,-8,-3,2,-32,26,6,-27,-22
1482546061058220,3,4,-9,-27,-14,3,4,-2
1482546061058220,-1,-4,-2,11,-2,0,8,3
1482546061059246,1,0,-20,14,40,10,8,0
1482546061059246,-3,2,8,-40,-17,-15,0,-1
1482546061071399,-6,3,22,37,7,-2,-10,-12
1482546061071399,0,-4,9,25,4,-1,1,3
1482546061080351,0,-16,-40,-45,-6,2,3,1
1482546061080351,-7,9,0,14,-6,-9,-6,-1
1482546061095416,-14,-19,-57,17,8,3,2,-10
1482546061095416,5,11,37,-36,-4,-4,-8,-2
1482546061097389,0,1,37,-14,-7,-5,13,6
1482546061097389,-7,-19,14,23,-11,0,-3,-5
1482546061118455,4,6,-3,-7,-2,-1,-4,-5
1482546061118455,0,-6,2,40,9,2,-1,3
1482546061119956,-6,-2,-23,-27,-12,-6,6,-1
1482546061119956,3,0,-23,1,-2,-3,-5,-6
1482546061131572,-4,10,59,-7,5,5,-1,-6
1482546061131572,-1,-11,-61,-3,0,4,4,2
1482546061140624,-2,-5,1,42,1,-10,0,-2
1482546061140624,-3,0,6,-43,-1,13,1,-2
1482546061155693,1,-2,-5,-5,-4,-6,-1,-3
1482546061155693,-3,4,41,58,-6,-5,-2,-10
1482546061156645,-4,2,-10,-17,-19,-12,-2,-2
1482546061156645,-1,-7,-7,5,0,-3,-6,-2
1482546061177707,5,6,-10,-23,4,2,5,-1
1482546061177707,-1,-8,-17,-24,-11,-3,-6,-2
1482546061179675,4,1,-11,10,5,1,0,2
1482546061179675,2,1,2,42,-3,0,3,1
1482546061191717,3,-5,-7,-67,-2,-2,-5,-1
1482546061191717,-3,-2,-20,-13,6,0,-2,-1
1482546061200697,-1,-2,-2,2,-9,-1,5,2
1482546061200697,-1,2,17,27,7,0,2,1
1482546061215730,-1,-2,-23,-7,-5,3,0,0
1482546061215730,-2,-3,-6,47,6,0,0,1
1482546061217219,2,5,34,-76,-12,-2,2,-2
1482546061217219,-3,-5,16,10,-5,-1,-4,-3
1482546061238380,0,-1,-31,-2,-4,-6,-5,-2
1482546061238380,-2,-7,-39,-37,-1,4,0,1
1482546061239350,-3,-9,-5,20,-3,-6,0,0
1482546061239350,4,9,0,10,-1,2,0,1
1482546061251415,1,-3,-1,-74,-9,-2,1,0
1482546061251415,-4,-1,42,30,12,0,-1,-1
1482546061260395,-1,2,-8,-3,-11,1,1,2
1482546061260395,-8,2,20,51,-5,-7,-3,-3
1482546061275431,1,-3,-21,-13,6,0,-2,-1
1482546061275431,6,-1,-21,-38,-5,4,-2,1
1482546061277404,0,-2,-1,7,6,-6,0,0
1482546061277404,-6,-1,7,24,-8,-1,0,-3
1482546061298421,3,6,-5,-23,4,5,2,1
1482546061298421,-3,1,3,-5,-7,-1,2,-1
1482546061299420,-1,9,1,6,1,3,-3,-3
1482546061299420,1,-10,0,-34,2,-4,-1,0
1482546061311968,-5,-2,11,41,2,0,-2,-2
1482546061311968,-4,-4,2,-48,-1,-8,-4,-1
1482546061320485,0,1,8,37,-9,2,1,0
1482546061320485,1,2,-15,-16,11,-4,1,-4
1482546061334725,-2,-1,13,31,-2,2,-2,-1
1482546061334725,1,0,-18,2,0,2,1,1
1482546061341729,0,-1,19,-11,-3,-2,0,1
1482546061341729,4,23,42,6,5,1,-1,0
1482546061357742,-9,-34,-44,14,-5,-7,-4,-6
1482546061357742,2,0,22,3,-3,-5,-4,-5
1482546061359726,-2,-2,-20,2,-5,4,-1,-1
1482546061359726,4,0,-9,-25,4,-7,5,2
1482546061371755,-16,9,19,15,-1,-4,-5,-2
1482546061371755,-4,2,-2,-4,-7,-2,4,-5
1482546061380755,-3,-7,-3,-11,2,-1,-8,-10
1482546061380755,5,-3,-22,-6,-5,0,-7,14
1482546061395840,13,9,-25,2,2,1,-2,1
1482546061395840,-3,-6,37,-5,-4,-4,-19,-8
1482546061396817,-3,-3,-23,3,6,6,33,14
1482546061396817,-2,-3,-61,32,1,5,-4,-7
1482546061418403,4,-1,6,-35,-19,-10,-16,-21
1482546061418403,-1,2,-17,-16,7,4,40,30
1482546061419903,5,3,5,30,10,7,-7,-3
1482546061419903,1,-3,39,-58,-8,-4,-4,-4
1482546061431689,-5,-6,-68,20,-15,-7,4,-2
1482546061431689,-13,2,-19,2,7,0,-7,-10
1482546061440683,-1,-4,22,3,-2,-7,-4,2
1482546061440683,-2,-6,-7,-19,1,1,-4,0
1482546061454746,2,5,31,25,4,4,7,1
1482546061454746,1,2,-5,-18,-13,-3,0,-2
1482546061461748,2,-4,-23,12,11,-3,-11,-2
1482546061461748,-3,4,33,35,8,8,6,-4
1482546061477759,-1,1,-64,-32,14,0,1,3
1482546061477759,1,5,30,27,0,3,-9,2
1482546061479710,-4,-10,10,-20,-13,-8,-19,-8
1482546061479710,0,-1,26,-2,-10,6,-18,-8
1482546061500777,1,4,-8,41,8,-6,49,22
1482546061500777,10,-3,-17,-1,-9,-2,-24,-13
1482546061501728,-11,2,-9,-52,10,-1,23,2
1482546061501728,-4,0,14,8,-7,-5,-4,-7
1482546061515297,2,-3,34,17,0,1,-20,3
1482546061515297,0,1,-5,7,-7,-8,-1,-9
1482546061521482,-1,0,42,4,3,10,-14,5
1482546061521482,-2,-6,-55,-16,4,0,11,-3
1482546061537544,-1,0,24,-10,0,-4,-27,-16
1482546061537544,5,0,-1,12,0,-2,29,1
1482546061539520,3,0,-8,0,-5,-3,-18,8
1482546061539520,-3,-4,-8,-10,-2,-4,-5,1
1482546061560563,2,5,31,2,-2,3,-4,1
1482546061560563,-4,-1,-4,9,12,7,1,7
1482546061562514,6,-4,-11,18,-12,-10,3,-11
1482546061562514,-9,-5,29,-21,2,-2,-3,-2
1482546061574573,-5,-4,-33,-14,-1,2,3,-5
1482546061574573,-3,-8,-28,-11,-2,4,-5,3
1482546061581578,-2,-1,8,-5,5,0,12,-1
1482546061581578,15,4,12,43,-6,-7,0,1
1482546061597590,4,1,55,-19,-5,2,4,7
1482546061597590,-6,-1,-59,-28,-1,0,2,0
1482546061599561,1,4,19,15,-13,-7,-9,-6
1482546061599561,-2,-4,-8,-15,9,0,5,2
1482546061620615,-4,1,27,89,-2,-7,-11,-6
1482546061620615,1,-1,-14,-67,0,1,-6,-5
1482546061622147,-1,-2,13,17,-7,-4,-9,-10
1482546061622147,-4,-3,-13,-3,2,7,-6,-1
1482546061634146,0,2,13,11,17,4,-4,-10
1482546061634146,5,-1,25,16,-7,-4,13,13
1482546061643177,-2,3,-33,-18,3,-2,-7,-5
1482546061643177,-4,-4,-9,-6,-5,-5,22,14
1482546061658214,1,-2,3,-11,-1,4,3,0
1482546061658214,4,0,2,8,0,0,-9,-2
1482546061659165,-2,-2,-18,-17,-5,-3,-7,-7
1482546061659165,1,2,-2,9,-3,2,14,4
1482546061680348,-8,-2,-7,-11,1,-1,-6,-4
1482546061680348,-3,-2,20,10,5,3,4,3
1482546061682319,2,-3,-11,13,-25,-10,1,5
1482546061682319,-2,-4,-7,-29,35,12,-8,-8
1482546061694356,-3,0,-33,-51,-1,0,9,10
1482546061694356,-6,-6,35,40,-14,-9,-19,-13
1482546061701362,1,1,50,-17,4,7,9,4
1482546061701362,2,0,-8,18,-17,-9,-2,-1
1482546061718394,2,1,-20,-7,-5,3,-7,-3
1482546061718394,-5,-3,-12,-7,6,-8,19,2
1482546061719883,1,1,-14,-10,-4,0,-5,-7
1482546061719883,2,-1,0,-1,-2,-10,-21,-3
1482546061740090,3,0,22,10,18,21,31,26
1482546061740090,1,2,-2,5,-8,1,2,4
1482546061742062,-2,-1,-14,5,11,6,8,4
1482546061742062,-4,2,3,-4,-13,-2,-16,-10
1482546061755101,-2,-2,-9,8,-4,-9,-9,-9
1482546061755101,2,-1,-1,-1,11,-2,-8,5
1482546061762078,-2,0,-14,-3,-1,-2,0,-1
1482546061762078,-2,-1,-3,-3,-4,-4,4,5
1482546061778116,1,0,9,-8,-11,-5,-4,-4
1482546061778116,-1,1,8,3,-1,-1,-2,-6
1482546061779065,-2,1,-7,3,9,-1,-10,2
1482546061779065,1,6,3,-3,-7,1,13,0
1482546061800131,-12,-4,6,3,-3,-1,7,-3
1482546061800131,-2,2,3,-4,-1,-1,-28,-9
1482546061802085,-2,-7,-13,7,5,9,39,13
1482546061802085,0,1,-3,7,-13,-13,-3,0
1482546061814168,6,1,5,7,8,2,1,1
1482546061814168,-1,-1,-7,-30,5,5,-4,-6
1482546061822848,-2,-2,7,16,-9,-12,-4,-1
1482546061822848,-1,0,-9,-41,-1,3,3,-3
1482546061838878,2,-2,-9,23,24,8,-5,-2
1482546061838878,2,3,13,10,-14,3,2,3
1482546061840875,-1,1,8,-1,11,-5,-4,-3
1482546061840875,-4,-2,-11,2,-11,-4,-27,-23
1482546061860890,4,-1,8,-2,-12,-11,33,22
1482546061860890,-2,-1,-5,-1,6,5,2,-3
1482546061861891,-4,0,7,0,-1,5,-1,-2
1482546061861891,3,-2,-14,6,4,1,-2,-4
1482546061873899,-6,-2,-10,-28,-13,-7,-25,-17
1482546061873899,-1,-4,1,13,5,-1,12,7
1482546061882892,-4,-2,-5,-3,-9,-10,-1,-1
1482546061882892,0,0,7,22,1,5,-6,-8
1482546061897920,1,-3,-10,-37,13,10,22,22
1482546061897920,7,2,4,-2,-8,-9,-2,0
1482546061899921,-2,-1,-13,-11,3,0,-16,-9
1482546061899921,-2,1,3,5,-1,-3,12,7
1482546061920458,-4,-5,7,25,-16,-6,-11,-9
1482546061920458,0,-3,-3,-33,-9,-8,-17,-14
1482546061922474,2,0,-1,-14,13,12,35,21
1482546061922474,-4,-3,-10,9,-1,-1,-1,1
1482546061934485,-1,1,-3,-9,-11,-8,-9,-5
1482546061934485,-2,2,3,20,10,0,-1,1
1482546061943493,13,1,-2,4,-11,3,-2,-7
1482546061943493,-22,-3,1,1,9,0,11,9
1482546061957483,-7,-6,-1,7,6,-5,-13,-10
1482546061957483,-1,4,-6,6,-27,-7,0,0
1482546061959486,-3,-7,9,3,14,1,-8,-5
1482546061959486,8,-2,8,-16,-7,-1,-3,4
1482546061980520,1,-1,-1,-19,1,5,-3,-3
1482546061980520,-4,-2,4,34,16,1,7,3
1482546061982517,-9,4,4,-24,-14,-5,-11,1
1482546061982517,7,-1,-31,-11,-3,-2,8,4
1482546061994515,2,0,-2,46,0,-7,-18,-5
1482546061994515,-10,-5,-30,-85,2,4,7,-2
1482546062003517,3,0,14,16,-2,3,-1,-1
1482546062003517,0,-4,-22,-1,-2,-6,-3,1
1482546062018066,-4,2,19,-19,-22,-10,-5,-3
1482546062018066,5,2,-8,30,0,-3,-3,-4
1482546062019553,-3,-2,-12,2,11,9,-5,-6
1482546062019553,-2,1,16,-2,2,6,12,10
1482546062040164,12,5,14,13,-1,-1,-2,-1
1482546062040164,-7,-7,-44,-16,-8,-1,-3,-2
1482546062042163,-4,1,14,27,9,-9,-10,-7
1482546062042163,-4,0,28,-5,7,4,7,0
1482546062054178,8,10,-14,32,-13,1,0,4
1482546062054178,2,-5,11,-64,2,3,0,2
1482546062063164,-3,-13,-18,-1,5,-5,-13,-2
1482546062063164,2,3,8,-23,1,1,-2,3
1482546062079176,-1,-4,8,-6,-5,-10,0,-4
1482546062079176,-6,5,29,0,-10,-1,2,-3
1482546062081176,6,8,16,9,-23,-5,4,-1
1482546062081176,-2,-4,-14,16,4,1,-4,-5
1482546062100247,-4,-7,10,-19,-1,4,-4,-3
1482546062100247,4,1,8,4,0,3,5,5
1482546062102218,1,0,-28,3,0,-3,1,-6
1482546062102218,6,2,26,-5,-30,-5,10,4
1482546062114292,-17,-1,8,38,46,17,-10,2
1482546062114292,0,-8,-7,14,-1,-10,-7,-8
1482546062123372,-3,-1,-31,36,19,4,6,7
1482546062123372,-7,2,-25,-62,-15,-4,3,4
1482546062145388,-2,-16,-22,-48,-15,-13,-17,-26
1482546062145388,-19,1,-54,-7,27,7,4,2
1482546062147376,7,16,28,-46,-25,7,2,4
1482546062147376,-7,-9,-15,70,13,-13,-7,-5
1482546062160401,7,7,-32,-39,-50,-13,7,6
1482546062160401,-1,-5,65,55,36,7,0,2
1482546062162386,-1,-3,25,20,-51,-13,-6,-9
1482546062162386,-9,-3,-13,35,89,30,10,12
1482546062174411,0,1,32,-1,-13,-5,-18,-18
1482546062174411,-3,-6,3,-5,-5,0,5,11
1482546062183415,-5,4,-21,19,-19,-15,5,-4
1482546062183415,6,5,63,-12,3,8,-19,-14
1482546062198425,1,-3,-27,44,35,5,5,8
1482546062198425,-4,-5,-30,-40,-33,-19,-6,-9
1482546062199426,1,-11,7,-14,-6,-2,1,1
1482546062199426,-22,4,46,28,-44,-14,-15,-20
1482546062220450,-3,-10,-73,-9,37,14,17,12
1482546062220450,7,7,6,36,46,16,2,3
1482546062221451,-3,10,14,-23,-28,-10,-9,-3
1482546062221451,9,-13,11,9,34,0,-3,-3
1482546062250625,-5,5,-5,-28,-23,-2,15,9
1482546062250625,8,10,38,31,-1,2,-2,-1
1482546062251622,26,3,13,-8,-5,-3,-6,-2
1482546062251622,-6,-12,-19,-14,19,3,-4,-1
1482546062257628,-18,4,5,62,-26,-4,2,7
1482546062257628,5,-3,-56,-47,-23,-1,-2,-10
1482546062259628,-5,-1,-12,-23,25,3,-3,0
1482546062259628,-12,-4,2,0,-19,-3,-8,-2
1482546062280645,3,-3,24,-4,4,-1,3,-1
1482546062280645,-1,0,-24,12,-9,-7,3,4
1482546062281630,-4,-1,23,7,18,17,9,5
1482546062281630,11,1,-13,-7,-12,-7,-4,0
1482546062293654,2,-2,15,-11,6,-2,-8,-1
1482546062293654,8,7,53,27,-6,5,-8,-2
1482546062302644,-4,-9,-31,-10,12,0,17,7
1482546062302644,-13,-5,-20,-7,-11,-5,-4,4
1482546062318185,-7,3,18,10,-2,-3,-29,-31
1482546062318185,3,1,-1,-18,-13,-4,51,21
1482546062319681,-3,-4,3,6,14,0,-51,-17
1482546062319681,8,4,-21,0,-9,3,62,47
1482546062340771,9,3,-3,-25,-1,3,23,-3
1482546062340771,2,-3,20,19,-7,-10,-24,-10
1482546062341776,-13,-3,-22,-6,13,6,-29,-9
1482546062341776,8,4,4,-6,-12,0,35,3
1482546062353790,-3,-4,-18,0,1,-4,-6,0
1482546062353790,0,-4,14,5,8,11,14,11
1482546062362792,2,5,-4,-7,1,-7,-7,-9
1482546062362792,6,-2,-14,-11,-16,-10,-50,-14
1482546062376804,-2,-1,17,-9,2,2,42,20
1482546062376804,-7,3,-16,11,-3,-2,-20,-13
1482546062383808,0,-4,-4,-6,1,6,14,10
1482546062383808,-3,0,9,12,-3,-2,-9,-10
1482546062408332,5,5,-24,22,-5,-10,2,5
1482546062408332,-4,-3,23,-45,10,6,-6,-4
1482546062409845,-6,-2,22,32,13,3,5,-4
1482546062409845,9,5,22,3,15,7,0,-2
1482546062414353,-13,-21,-10,44,-2,-3,-30,-12
1482546062414353,2,7,-16,0,-7,-5,-9,-1
1482546062430992,-2,-2,9,-14,0,2,19,8
1482546062430992,2,5,-15,2,-7,-4,-8,-7
1482546062437055,8,3,-4,-28,7,5,0,6
1482546062437055,-8,-2,15,9,-4,0,0,-5
1482546062444164,-4,-11,-24,-3,-4,-5,6,-7
1482546062444164,5,-1,2,-2,-6,0,-12,15
1482546062462187,6,12,39,-19,-5,-2,-3,-14
1482546062462187,-15,-18,-46,2,-11,-4,-9,-8
1482546062463146,1,2,-1,-1,2,-5,-12,17
1482546062463146,8,3,-9,-7,0,-3,-6,-18
1482546062483202,-2,-6,12,-12,3,3,1,8
1482546062483202,-7,-1,-17,9,-1,-1,2,2
1482546062484152,-1,3,4,-3,-4,-2,-7,-13
1482546062484152,-1,5,2,-3,-4,-7,0,4
1482546062497161,7,-11,-13,-7,-1,2,5,9
1482546062497161,5,4,22,5,-3,-6,-11,-8
1482546062504336,-1,-2,-21,6,10,8,12,5
1482546062504336,0,8,17,-25,-4,1,2,-3
1482546062520866,-7,-21,-11,-4,-7,-1,-5,-5
1482546062520866,-1,2,-9,-16,-10,-9,-5,-2
1482546062522360,-3,-10,-6,-5,3,1,12,6
1482546062522360,-3,1,-27,10,0,3,3,-3
1482546062543405,-2,9,37,-3,-1,-1,-8,-5
1482546062543405,1,-8,-30,-12,-7,-11,-1,6
1482546062544379,0,7,16,2,-9,-4,5,-3
1482546062544379,-6,2,0,4,7,9,2,-7
1482546062557440,-3,5,4,16,4,0,0,6
1482546062557440,5,3,14,-12,9,9,-13,-4
1482546062564417,0,2,-12,-4,-8,-5,30,10
1482546062564417,-3,0,0,4,-5,-5,-13,-2
1482546062580458,-1,2,7,-4,-1,-2,-3,-2
1482546062580458,4,5,14,0,1,0,12,8
1482546062582409,1,-1,-2,6,3,1,-9,-7
1482546062582409,-3,-13,-10,-11,-8,-7,-2,-5
1482546062603447,5,7,-3,5,3,3,3,2
1482546062603447,1,-1,-5,16,2,5,-2,-2
1482546062604421,-1,-1,29,-10,-8,-10,-6,-2
1482546062604421,-2,-8,-30,7,-5,-2,3,-1
1482546062617544,-3,-1,-4,-21,0,-1,-2,-2
1482546062617544,4,11,-20,44,9,5,4,1
1482546062624197,-8,-16,16,-33,1,2,0,-2
1482546062624197,2,1,-18,-12,5,3,-1,-1
1482546062640207,-15,-2,28,32,-11,-13,-9,-8
1482546062640207,-4,-5,-19,-14,-3,-5,1,-1
1482546062642164,2,7,-30,3,-1,-2,3,1
1482546062642164,-10,-8,12,-4,0,2,-1,-4
1482546062663226,5,3,-21,-15,5,11,3,3
1482546062663226,1,-3,15,1,-6,-9,4,0
1482546062664197,-4,4,-6,0,-6,-3,-18,-9
1482546062664197,6,2,4,-4,1,4,12,1
1482546062677224,3,5,-6,-5,1,-3,-1,2
1482546062677224,-4,-5,19,3,-4,-5,0,-3
1482546062684237,1,-1,-9,4,4,2,-4,-3
1482546062684237,-3,0,7,4,-5,-2,-4,0
1482546062700252,0,-1,-1,-4,1,3,2,1
1482546062700252,-3,-2,4,-3,-3,-1,-5,-1
1482546062702203,2,0,-1,-1,-1,-2,1,0
1482546062702203,-2,3,2,6,3,3,3,1
1482546062723328,-3,-6,-27,-2,2,0,0,-2
1482546062723328,0,0,9,-13,-10,-8,-2,0
1482546062724330,1,3,2,12,-4,-1,1,2
1482546062724330,-3,-3,5,-6,-11,-3,-3,-3
1482546062736392,1,0,-8,-19,14,10,3,2
1482546062736392,1,0,3,-1,-3,2,0,-1
1482546062745372,0,-3,-6,0,-8,-7,1,-1
1482546062745372,-2,2,7,8,-2,0,-2,-1
1482546062760410,2,1,7,2,-8,-5,-1,-1
1482546062760410,-2,-5,-2,-1,3,1,-1,-1
1482546062762361,-1,-4,-4,-2,0,-1,-1,0
1482546062762361,0,1,1,-4,-3,-3,-9,-3
1482546062783401,-1,2,3,1,0,-2,4,0
1482546062783401,-2,-1,2,3,9,17,6,-1
1482546062784370,0,4,2,3,0,-9,-1,-1
1482546062784370,0,-17,-11,-3,0,-3,-4,0
1482546062796434,-2,-2,-1,-4,-9,2,-2,-1
1482546062796434,0,3,6,2,10,-4,-3,-1
1482546062805385,2,3,-3,2,-3,5,3,-1
1482546062805385,-1,0,11,-4,0,-3,1,-1
1482546062820929,0,2,1,-3,-7,-6,-4,1
1482546062820929,-1,-3,-2,1,-8,-4,-3,-1
1482546062822445,-2,-4,-14,0,9,8,0,1
1482546062822445,0,2,20,0,-2,-10,1,0
1482546062842777,2,-1,-2,-4,-6,-2,0,-1
1482546062842777,4,2,0,12,13,3,1,0
1482546062844729,-16,-2,4,8,-5,-2,-5,-4
1482546062844729,-1,2,-8,-31,7,9,1,-1
1482546062856785,0,0,0,17,-5,-7,0,-3
1482546062856785,-1,-5,-4,-2,0,-1,-1,-1
1482546062865750,4,11,33,-10,-1,3,-2,-1
1482546062865750,0,-13,-53,3,-8,-10,-2,-1
1482546062880747,-4,6,27,0,0,-3,-3,-1
1482546062880747,-1,-1,-27,0,0,-5,0,3
1482546062881747,0,-9,-12,8,5,2,-1,0
1482546062881747,-3,0,9,-4,0,4,-1,0
1482546062902818,5,8,16,-6,-1,-3,-3,-1
1482546062902818,-2,-7,7,2,-9,-2,-2,-2
1482546062909386,3,2,-15,-6,4,2,3,3
1482546062909386,-1,5,-5,9,2,2,2,2
1482546062916891,0,0,-19,-4,9,3,2,0
1482546062916891,-3,2,-1,-25,-5,0,1,-1
1482546062925962,-5,-4,18,17,-3,-3,-2,-2
1482546062925962,-4,-5,20,5,-6,-5,-5,-5
1482546062940977,5,0,-12,2,-4,-3,-3,1
1482546062940977,2,6,0,-3,-1,5,2,0
1482546062941974,1,-6,-19,-24,-10,-7,2,0
1482546062941974,-4,-1,9,45,0,-1,-2,-3
1482546062963017,-3,0,-15,-13,13,10,5,2
1482546062963017,-1,8,2,-24,-1,2,-1,4
1482546062964970,-7,-1,-9,-28,-20,-6,-4,-5
1482546062964970,30,0,41,77,23,0,-1,-2
1482546062977092,-14,-5,-10,23,3,-3,0,1
1482546062977092,-3,-7,-5,4,-7,0,0,1
1482546062986103,0,-3,-15,-4,7,0,1,0
1482546062986103,1,4,9,-7,-11,3,0,0
1482546063000253,5,2,3,-56,-14,-5,-3,-8
1482546063000253,0,-4,-27,18,10,3,3,1
1482546063002231,-2,-6,19,-5,-5,-2,-2,-2
1482546063002231,-5,-3,-21,-15,-10,-6,-4,-4
1482546063022317,4,1,-1,6,4,0,-2,-3
1482546063022317,-13,1,19,-9,-1,7,2,0
1482546063024480,3,5,2,30,8,-4,3,0
1482546063024480,-5,-1,-25,-27,-6,-3,-2,0
1482546063036510,-1,-5,21,0,6,5,-1,1
1482546063036510,2,-3,-1,7,-7,-5,-3,-3
1482546063045508,-1,-2,1,10,10,4,0,-1
1482546063045508,-11,0,-8,-17,4,1,2,-2
1482546063060523,4,-5,-11,2,-21,-7,-2,0
1482546063060523,2,-1,15,7,-1,-3,-2,-4
1482546063061523,2,1,-4,6,14,8,1,0
1482546063061523,-2,0,-9,-37,-20,-8,-6,1
1482546063082539,-5,0,1,29,7,-7,0,-3
1482546063082539,1,-6,-2,0,-1,3,9,2
1482546063084522,0,-1,-3,-22,5,0,-3,-1
1482546063084522,-4,2,-1,3,1,7,-2,2
1482546063096550,2,-2,2,-5,-10,-5,-7,-2
1482546063096550,-1,-1,3,8,-1,-6,-1,-1
1482546063105537,-1,-2,-3,5,-3,-4,-1,-2
1482546063105537,-1,-2,1,-12,10,8,2,-1
1482546063120639,0,-4,0,8,0,0,1,2
1482546063120639,-3,1,1,-13,-14,-6,-5,-4
1482546063122111,3,1,-3,3,0,1,2,3
1482546063122111,-2,0,-5,-6,-1,-5,-2,-2
1482546063143183,-2,-1,-1,-6,-9,-1,-2,-1
1482546063143183,-1,-1,0,4,2,-2,-1,-1
1482546063144157,1,0,12,-6,-2,0,0,-1
1482546063144157,0,1,-14,8,4,0,1,1
1482546063156164,-4,-5,-1,-4,0,2,-1,0
1482546063156164,0,0,4,-3,-4,-5,-4,-2
1482546063165190,-2,0,-5,11,2,-2,0,0
1482546063165190,-1,-2,7,-37,-4,-4,-1,-2
1482546063180211,-4,-1,-4,11,-14,-3,-1,-1
1482546063180211,2,-3,0,-1,24,10,2,1
1482546063182155,-9,2,-16,-3,-12,-3,-2,0
1482546063182155,4,6,9,6,-3,2,2,-1
1482546063203229,-9,-10,-25,-6,1,-3,-5,-3
1482546063203229,1,6,39,9,-16,-8,-5,-2
1482546063204201,-9,-32,-41,-8,0,1,1,0
1482546063204201,-3,6,6,14,4,0,-2,-1
1482546063216759,-1,1,-15,-3,1,2,1,0
1482546063216759,1,7,-13,-5,4,-2,-3,-1
1482546063225943,2,-5,5,-19,-14,2,0,-1
1482546063225943,-4,-13,-31,-14,-6,-2,-1,0
1482546063240009,2,1,12,11,12,6,4,1
1482546063240009,-3,-7,-16,2,0,-5,-2,-2
1482546063241982,6,19,37,12,4,-1,-1,2
1482546063241982,-3,-5,-7,2,-1,-2,-1,1
1482546063263027,2,3,9,-2,8,2,-2,-1
1482546063263027,1,-3,-3,5,-6,-5,0,0
1482546063264971,-2,4,2,-5,-3,-1,-2,-1
1482546063264971,-1,2,-1,13,9,0,1,-1
1482546063285041,-3,0,5,-22,-5,-1,1,0
1482546063285041,-1,-5,2,-2,-5,-1,-1,0
1482546063287014,2,-1,-6,8,2,2,0,-1
1482546063287014,-5,-1,-3,2,3,0,-1,-2
1482546063300172,14,0,-1,2,-3,-1,0,1
1482546063300172,-4,0,3,-8,-3,-2,-1,-1
1482546063302120,-1,4,-1,2,-2,-3,-2,-2
1482546063302120,0,2,14,4,-1,-1,2,0
1482546063323222,2,5,12,0,1,0,-1,0
1482546063323222,-1,-3,-15,-3,-2,-1,0,-2
1482546063324221,5,-4,-7,-1,0,0,-1,-3
1482546063324221,-3,-4,3,-3,-4,-2,-1,0
1482546063336289,-1,-1,5,-2,-2,0,-1,-3
1482546063336289,2,2,-6,0,0,0,-5,-1
1482546063345267,-2,-3,1,-2,2,4,-16,-9
1482546063345267,5,-2,6,-6,-1,6,37,12
1482546063360277,-4,-3,-1,5,1,-4,3,0
1482546063360277,-2,0,-2,1,-4,0,0,-2
1482546063366308,0,1,2,-3,0,-4,-3,-3
1482546063366308,0,0,3,-3,-3,-1,-13,-5
1482546063383312,-3,-1,-7,0,3,1,-2,1
1482546063383312,5,-2,-2,-3,2,0,1,0
1482546063384292,-15,-3,3,-3,-2,-4,2,2
1482546063384292,-1,2,13,1,0,0,-7,-4
1482546063405335,1,-1,-24,2,2,-1,4,1
1482546063405335,-1,-2,4,-6,-3,-4,-6,-2
1482546063407309,4,1,8,1,2,2,5,4
1482546063407309,-2,0,-21,0,-4,-5,-4,-2
1482546063419844,-5,2,9,-4,-2,-1,-6,-5
1482546063419844,-4,0,2,3,-2,1,1,0
1482546063426975,1,-2,-1,4,2,-1,0,2
1482546063426975,-1,-4,2,0,3,-2,-7,-2
1482546063442987,-1,-3,-14,-8,-3,-3,-1,-2
1482546063442987,0,2,-14,-3,-7,0,0,0
1482546063444999,4,9,25,13,10,2,2,0
1482546063444999,1,0,-7,-14,-7,-5,-5,-1
1482546063465106,2,-2,-2,2,0,0,-1,0
1482546063465106,-5,-1,0,-3,-2,-6,-3,1
1482546063467082,-1,2,-7,6,-4,-3,-3,-1
1482546063467082,3,2,-29,-9,9,7,-1,0
1482546063480118,-18,4,36,0,-4,-3,-3,-3
1482546063480118,-4,0,1,-4,-1,1,0,-2
1482546063487078,8,-9,-5,7,7,-2,0,1
1482546063487078,0,0,6,28,3,1,-1,-1
1482546063503137,7,3,-8,-17,-4,-1,1,2
1482546063503137,-1,12,2,31,9,1,-3,-5
1482546063504089,-8,-5,11,-27,-10,-2,-1,-1
1482546063504089,-1,-6,-28,9,-3,-5,2,0
1482546063525230,3,-1,9,0,8,5,1,2
1482546063525230,0,-8,-16,-37,-10,-6,-2,0
1482546063527230,-1,4,-30,1,-7,-3,-8,-2
1482546063527230,2,16,96,13,5,4,10,3
1482546063540226,4,-6,-31,9,-1,-2,-1,0
1482546063540226,-1,-5,-59,-26,-9,-4,-2,0
1482546063546242,-3,-13,1,-15,3,-2,1,-1
1482546063546242,-8,1,18,2,11,5,-5,-4
1482546063563257,1,5,3,7,-4,-1,-4,-4
1482546063563257,-1,-6,21,12,4,2,-1,-1
1482546063564255,4,8,-11,1,-8,-1,2,0
1482546063564255,4,-1,-6,-23,-11,-5,-4,-1
1482546063585272,-3,-4,6,-1,6,2,0,-1
1482546063585272,3,7,18,9,-1,-3,-2,1
1482546063587271,0,-5,-32,-3,-2,-3,2,-4
1482546063587271,-2,5,-18,5,-1,0,-2,-1
1482546063599330,-2,-6,-18,5,3,1,-1,-1
1482546063599330,1,9,64,0,4,8,4,3
1482546063606334,-4,1,5,-6,-4,-3,1,-2
1482546063606334,1,-10,4,-9,-3,-4,-4,-3
1482546063623354,2,9,102,12,-3,0,1,1
1482546063623354,-8,-23,-78,-7,0,-2,-1,-2
1482546063624601,1,5,46,6,1,1,0,-1
1482546063624601,-2,6,-38,-13,-12,-2,-5,-1
1482546063645673,-3,-21,3,-8,0,-1,-1,-1
1482546063645673,4,3,13,-13,-3,-1,0,-2
1482546063646645,-3,-2,-4,4,-2,-2,0,2
1482546063646645,9,0,-18,4,2,-1,-2,-2
1482546063659681,-7,0,-9,0,-7,-1,-1,1
1482546063659681,1,-1,10,3,5,0,1,-1
1482546063666682,-6,-11,-77,-5,2,1,-1,-1
1482546063666682,-4,7,46,18,0,-2,-2,0
1482546063682660,3,3,-13,-22,-8,-3,0,1
1482546063682660,-1,-1,-13,4,6,0,-1,-1
1482546063684664,4,15,50,10,3,0,0,0
1482546063684664,-4,-17,-61,-7,-3,-3,-1,-2
1482546063705676,-1,7,15,7,1,4,-1,-2
1482546063705676,-7,-4,13,-2,-8,-8,-2,3
1482546063706662,10,8,30,31,-1,2,5,3
1482546063706662,-3,-8,-8,-38,0,2,-2,0
1482546063719179,-5,-23,-61,-3,-5,-5,-4,-2
1482546063719179,5,9,44,22,7,2,2,0
1482546063728220,-5,-2,3,-10,-4,-2,-2,-2
1482546063728220,-1,0,-8,-2,-5,-5,-3,-1
1482546063743285,2,8,3,-1,2,-1,2,2
1482546063743285,-1,-4,-5,12,1,2,-2,-1
1482546063744232,0,0,-25,-6,-3,-3,-1,-3
1482546063744232,-4,1,16,-5,-5,-2,-2,-2
1482546063765303,-2,-7,-5,3,0,-2,-1,-1
1482546063765303,0,0,1,13,10,1,1,-1
1482546063767276,-3,-10,-28,-9,-11,-1,-1,0
1482546063767276,14,7,29,-20,4,-2,-2,1
1482546063779313,-2,1,-12,-3,-2,-2,0,-2
1482546063779313,-4,1,28,1,-4,2,1,-1
1482546063788264,-3,-10,1,10,3,1,-5,-1
1482546063788264,-5,7,15,6,-3,-3,5,-3
1482546063803279,2,-1,-18,1,-4,-4,-3,-1
1482546063803279,-2,1,-9,-13,-3,-1,-2,-4
1482546063804275,1,4,-6,-9,10,8,-6,2
1482546063804275,-10,-11,17,13,-7,-8,8,4
1482546063825508,10,3,-22,-5,0,2,5,5
1482546063825508,-6,6,-8,-4,-5,-3,-7,-14
1482546063827492,-4,-8,23,-2,-5,-2,2,-2
1482546063827492,-2,-3,-7,-2,0,2,-10,-6
1482546063839588,-4,-6,1,11,3,0,14,3
1482546063839588,1,-9,-34,-7,-5,-3,-22,-4
1482546063848568,-1,2,3,-9,-1,-3,-4,-3
1482546063848568,0,-2,-3,2,-1,1,0,3
1482546063862631,-5,5,-2,-12,-2,-1,-13,-9
1482546063862631,3,-3,-3,1,2,3,18,11
1482546063864603,10,1,11,-7,-3,-6,-1,-1
1482546063864603,-3,-4,-12,11,2,5,-3,-1
1482546063885618,-2,5,4,-4,-2,-4,-17,-2
1482546063885618,-6,0,30,3,-5,1,25,-2
1482546063887598,5,-5,-7,-32,-2,0,-3,-1
1482546063887598,-1,-5,-18,2,2,0,-1,-3
1482546063898656,-1,4,9,-4,0,-1,-1,3
1482546063898656,-2,0,-7,11,4,-4,-10,-3
1482546063908201,-3,3,7,15,3,-2,-4,0
1482546063908201,5,1,17,-11,-5,0,6,-1
1482546063923306,-4,-1,-13,6,-4,-3,-6,-3
1482546063923306,-1,0,5,-15,1,-3,-3,3
1482546063924510,4,-4,-23,-18,-8,-3,1,0
1482546063924510,1,3,-9,4,1,0,-5,-4
1482546063945543,-3,-14,17,-2,0,2,2,-2
1482546063945543,-2,-3,4,-4,-5,0,-2,0
1482546063946538,-2,1,4,10,1,2,7,1
1482546063946538,-3,0,-2,8,3,-2,-14,0
1482546063959535,1,-1,-2,12,-5,-1,10,-3
1482546063959535,-7,-2,-2,15,5,1,5,0
1482546063968546,-1,6,-2,-30,3,6,-3,1
1482546063968546,45,-8,-32,30,1,-7,-3,-3
1482546063982571,-20,2,15,-10,-1,0,-22,6
1482546063982571,1,-5,-18,-5,-5,-2,27,12
1482546063984552,-4,6,14,14,2,-2,-13,-1
1482546063984552,-6,-4,9,2,1,3,14,5
1482546064005570,7,4,3,23,-3,-4,3,1
1482546064005570,-12,0,-8,-54,0,2,-5,-4
1482546064006583,33,5,-23,31,6,-1,-19,10
1482546064006583,16,-2,1,-32,-3,2,29,8
1482546064019188,-37,-6,6,12,-3,-3,-15,-25
1482546064019188,2,1,16,8,-1,0,-4,-4
1482546064027695,-4,-6,-27,-12,-7,-6,19,-2
1482546064027695,-2,4,5,2,-9,-4,-29,1
1482546064042706,2,0,-8,-8,2,3,16,5
1482546064042706,40,5,9,9,0,-1,-8,0
1482546064044715,8,4,8,14,7,2,8,10
1482546064044715,-98,-38,-15,10,0,2,-10,-16
1482546064065771,47,14,10,-15,-1,-1,17,8
1482546064065771,-32,2,6,5,-3,-3,-27,-7
1482546064066729,18,-6,-4,5,-3,-1,13,5
1482546064066729,2,10,17,-11,-4,-3,-4,-6
1482546064078753,-12,-1,-6,2,1,0,-2,-7
1482546064078753,-1,-10,-8,1,-1,-2,-6,-9
1482546064087729,-5,6,18,-3,-4,-3,-25,-27
1482546064087729,-3,7,41,0,3,4,30,4
1482546064102796,-8,-33,-101,-20,-3,-6,-53,13
1482546064102796,23,5,19,5,-3,0,13,10
1482546064104754,13,1,8,-12,-6,-6,-17,-11
1482546064104754,-39,7,-23,7,5,1,-9,-21
1482546064125454,-6,40,112,7,-2,-6,-4,-2
1482546064125454,4,-5,-79,-2,1,0,-24,-3
1482546064127456,7,0,4,-3,-4,-1,11,16
1482546064127456,35,3,-3,4,0,-1,5,19
1482546064139460,-33,-28,-14,-7,-3,1,1,-17
1482546064139460,-12,-4,3,-2,-6,-3,1,-15
1482546064148471,-15,3,14,-2,1,1,17,-7
1482546064148471,24,8,-24,11,-3,-3,-14,0
1482546064162481,-2,-1,5,-6,8,-3,11,11
1482546064162481,20,13,27,-37,-12,9,13,9
1482546064164476,-28,-20,4,33,12,4,7,6
1482546064164476,-10,-13,-61,-71,-4,0,-8,4
1482546064186481,15,2,-12,8,8,4,8,3
1482546064186481,-13,-15,12,6,-12,-12,-11,6
1482546064188484,2,2,20,36,-7,-5,8,-35
1482546064188484,-6,3,-16,-5,4,1,-9,48
1482546064199503,13,31,36,-10,-19,-6,28,-22
1482546064199503,11,11,-4,25,7,-1,-65,-34
1482546064208509,-20,-12,-48,22,18,6,-10,-59
1482546064208509,-33,-11,37,-73,-22,-21,24,-6
1482546064223580,-6,8,-5,55,-3,1,38,19
1482546064223580,12,-5,-1,-7,-4,-4,-8,32
1482546064224640,-21,8,32,5,-1,0,-24,-20
1482546064224640,25,1,-38,15,22,13,-59,-7
1482546064245713,-16,-21,20,-19,-3,4,52,32
1482546064245713,-14,-19,-9,11,-13,-5,-9,-29
1482546064246654,9,0,-7,-24,21,2,0,25
1482546064246654,16,31,6,63,-11,0,-17,46
1482546064258747,17,-18,-1,-90,1,2,-26,-4
1482546064258747,-2,-8,18,78,1,1,70,34
1482546064267767,-2,-14,-19,-34,-9,-4,20,-33
1482546064267767,13,20,27,9,-1,-2,19,-9
1482546064282777,5,-6,-36,46,15,3,-99,-67
1482546064282777,-9,-6,-16,-38,2,10,107,76
1482546064288818,-10,-1,25,-16,-10,-15,-14,-43
1482546064288818,1,-19,7,32,4,5,70,25
1482546064305834,21,14,-1,-1,-5,-13,-93,-63
1482546064305834,18,9,-15,-31,13,18,54,26
1482546064306773,-24,0,-4,17,-8,-2,-15,20
1482546064306773,-2,-18,-8,-10,-8,-24,-69,-25
1482546064319308,5,33,16,-21,-11,-26,-73,-1
1482546064319308,6,9,63,30,8,29,-7,-5
1482546064327907,12,8,-62,-8,-7,-15,2,40
1482546064327907,-6,-12,-4,-25,-11,0,-8,-30
1482546064341921,-3,-18,8,16,3,-10,-5,10
1482546064341921,-24,-8,-66,-13,-11,-40,17,-64
1482546064348926,3,1,-10,49,0,17,50,62
1482546064348926,7,0,5,-72,9,14,27,0
1482546064364939,-5,-3,35,48,-12,1,54,1
1482546064364939,3,5,62,10,12,21,-73,-24
1482546064366924,9,-12,39,-21,-7,-4,-18,19
1482546064366924,-6,-10,30,36,-1,-29,-60,-78
1482546064388073,25,3,5,12,11,11,39,38
1482546064388073,15,47,14,-6,7,4,8,61
1482546064389016,-12,-8,-6,-8,4,29,27,9
1482546064389016,-32,-15,-5,17,-6,-2,20,13
1482546064403089,-24,-30,15,-14,-3,-6,-30,-18
1482546064403089,2,-47,14,26,1,-7,-35,-29
1482546064409150,6,6,-84,-57,-7,-5,-77,-10
1482546064409150,15,-32,-5,6,-5,5,93,19
1482546064425843,3,-13,-1,20,1,11,126,72
1482546064425843,-14,-7,13,37,3,-26,-54,-64
1482546064426858,-22,1,27,-61,-29,-16,31,8
1482546064426858,4,19,87,47,5,1,-6,-27
1482546064447878,0,0,-92,-77,-21,-2,27,-3
1482546064447878,-4,-3,-25,2,10,29,-90,-9
1482546064449875,6,22,36,29,9,-13,48,19
1482546064449875,-7,-6,-47,-4,-2,-2,31,-5
1482546064461888,-3,18,23,22,11,8,-31,-2
1482546064461888,6,14,-12,27,-2,-2,-28,2
1482546064468892,2,-17,-12,-84,-18,2,-38,5
1482546064468892,0,7,-14,24,0,18,73,30
1482546064485900,-1,-1,1,20,13,-10,-42,58
1482546064485900,15,13,-7,-20,-4,19,119,49
1482546064486900,-1,10,16,43,24,-9,7,80
1482546064486900,3,42,7,-14,-4,4,-31,-20
1482546064507919,8,-5,-5,-21,6,9,-3,-18
1482546064507919,-33,23,-4,14,-1,-22,11,-15
1482546064509924,3,-3,32,-17,-19,24,70,28
1482546064509924,10,13,6,10,11,-21,5,101
1482546064522496,4,-9,-47,-14,-1,10,19,3
1482546064522496,-6,-9,-16,-24,-2,7,65,9
1482546064529414,10,-5,30,22,28,31,39,-48
1482546064529414,-27,-14,-4,-2,-15,-50,-54,-37
1482546064545425,-2,2,-6,-10,-31,-29,5,-51
1482546064545425,4,-6,43,17,-14,-16,-78,0
1482546064547424,-8,-7,-64,6,22,2,-20,-34
1482546064547424,5,-14,8,-56,4,20,17,60
1482546064567544,-1,9,12,-19,-3,-12,-28,-28
1482546064567544,-13,-17,7,7,-50,-11,23,-82
1482546064569489,3,6,-2,52,15,-2,22,21
1482546064569489,18,15,30,5,45,25,-92,-62
1482546064582554,-4,-10,-3,-9,13,31,50,41
1482546064582554,2,-8,-64,-42,21,3,6,39
1482546064589535,1,30,34,33,-44,-13,-128,-96
1482546064589535,7,15,1,-33,-9,-14,12,25
1482546064605570,-8,-6,56,27,-11,8,18,5
1482546064605570,20,-18,-17,11,28,-9,-69,40
1482546064606544,-21,-25,-14,-52,-13,-3,44,7
1482546064606544,4,-2,-70,24,-3,2,-67,-58
1482546064628185,-12,-5,5,15,6,13,23,-12
1482546064628185,3,11,9,-35,-13,-17,14,49
1482546064629170,-1,-8,34,31,-14,-15,-59,34
1482546064629170,0,-2,30,6,-1,9,33,1
1482546064641192,14,1,-20,39,12,8,-13,10
1482546064641192,21,-16,-1,-6,12,13,50,5
1482546064650183,-27,-25,-23,-4,-3,-17,-90,-81
1482546064650183,-9,-8,-14,-7,-10,0,118,43
1482546064665247,-5,-3,-10,-44,-9,-12,-14,-14
1482546064665247,10,10,22,22,-52,9,-49,-15
1482546064667197,29,5,-18,42,89,16,80,64
1482546064667197,-1,-2,16,12,3,18,42,-37
1482546064688264,-1,0,-36,-37,-4,-20,-80,-39
1482546064688264,-24,-4,-21,-54,-20,-21,-26,-57
1482546064689209,-15,-17,45,-23,-51,-27,-11,-9
1482546064689209,-1,-3,-8,39,7,10,-3,-1
1482546064702223,9,7,-11,17,26,10,-27,1
1482546064702223,-7,7,-16,5,0,6,67,82
1482546064710784,3,13,8,17,20,12,2,-19
1482546064710784,3,-1,-23,-42,-21,-9,-14,17
1482546064725351,-19,-5,28,19,-9,-2,-31,-12
1482546064725351,-7,-8,5,-32,19,1,-28,-29
1482546064727351,1,1,-20,-9,-3,0,12,-17
1482546064727351,-1,8,29,30,-13,2,45,59
1482546064748396,-9,24,14,-37,-20,-8,6,-5
1482546064748396,-8,-19,-21,28,29,10,14,-25
1482546064749394,34,-3,-11,-78,-25,-10,30,39
1482546064749394,-31,-6,9,8,2,-5,-50,-37
1482546064761432,18,5,8,31,-1,8,38,3
1482546064761432,1,11,17,-6,13,-2,25,27
1482546064770411,19,24,2,6,-10,0,-6,-33
1482546064770411,-18,5,-20,-16,-12,-5,-86,-48
1482546064785449,15,-8,11,9,16,7,77,45
1482546064785449,-6,-3,-7,-14,-3,-5,11,-40
1482546064787400,-4,0,10,34,6,3,18,41
1482546064787400,11,-11,-3,49,4,3,8,7
1482546064807464,0,10,-11,-35,18,4,12,4
1482546064807464,-35,-5,1,-33,-14,-4,-44,-20
1482546064809950,-8,-10,-33,21,-7,1,101,93
1482546064809950,-4,5,13,20,9,-1,-34,-19
1482546064821954,-15,-1,7,26,-7,-6,-35,-8
1482546064821954,41,12,94,16,-7,-5,-31,-11
1482546064830553,-8,-19,-44,-49,21,0,-49,-40
1482546064830553,10,-17,-70,-22,-12,0,-3,5
1482546064852615,-14,-8,-24,-9,-9,2,26,7
1482546064852615,2,32,-11,-4,1,-6,4,1
1482546064854614,-9,-3,41,5,-16,-4,-11,-22
1482546064854614,10,-2,-18,-17,8,2,5,-11
1482546064867681,6,1,16,2,3,1,-10,17
1482546064867681,-8,0,2,49,14,2,-11,3
1482546064869658,14,9,-31,-15,-3,2,-40,8
1482546064869658,-7,-19,30,-2,-5,-1,-47,-34
1482546064881689,-5,-5,-41,1,-2,-4,66,26
1482546064881689,-1,-2,-21,-5,2,-3,-4,-12
1482546064890639,-3,13,52,-28,-3,-5,-6,-10
1482546064890639,12,1,8,9,-2,-4,34,-13
1482546064905706,-7,3,21,26,12,3,-58,-34
1482546064905706,1,-4,-7,-8,-1,-1,2,4
1482546064906650,3,-1,-33,14,-7,-2,-5,-1
1482546064906650,-2,-5,-23,-31,-7,-3,-14,-9
1482546064927920,-2,-12,2,1,-5,-4,-16,-14
1482546064927920,1,5,-7,30,-2,1,3,-5
1482546064929918,-11,-6,2,-22,-20,-4,-22,-15
1482546064929918,-4,6,34,-21,19,5,-12,11
1482546064949935,1,2,-18,46,-1,-2,-4,-2
1482546064949935,1,3,2,-31,-10,-1,49,39
1482546064951919,-14,-16,-12,-6,-2,-3,-15,-20
1482546064951919,0,-3,-2,-33,-6,-4,6,-2
1482546064964946,0,-3,61,-3,-14,-8,-43,-11
1482546064964946,-1,-7,-34,-3,3,-3,-12,3
1482546064971938,-8,-1,21,40,6,3,-10,-13
1482546064971938,4,4,-28,2,5,3,-39,-40
1482546064987961,2,3,3,-19,-1,1,25,2
1482546064987961,-8,-9,-13,-27,-6,-9,-44,-17
1482546064989960,-4,12,-18,8,2,-4,-34,-3
1482546064989960,1,3,64,7,-8,-2,7,-21
1482546065010501,-1,-5,-25,-6,10,-3,-38,-13
1482546065010501,-6,-15,-14,-6,-1,2,26,12
1482546065012483,1,0,16,6,3,3,-4,-3
1482546065012483,21,4,6,29,1,-3,10,18
1482546065024993,-18,-20,-6,-43,0,6,17,2
1482546065024993,0,0,-34,5,7,5,19,9
1482546065031378,1,-3,25,6,2,0,-24,12
1482546065031378,-2,-2,5,8,-16,-11,-36,32
1482546065048373,7,8,-1,12,-6,-1,57,40
1482546065048373,2,4,0,-1,7,0,-37,-12
1482546065049388,3,11,6,7,11,7,11,-8
1482546065049388,7,-3,10,32,11,1,-12,4
1482546065070402,-11,-13,-28,-31,-7,-2,-13,-8
1482546065070402,4,4,35,-11,-21,-3,-2,-5
1482546065072388,-11,0,-9,-2,-5,-5,11,8
1482546065072388,1,4,-15,-31,-12,3,35,-3
1482546065084412,3,4,5,-3,15,2,-10,-11
1482546065084412,6,20,24,29,0,-3,23,6
1482546065091417,-17,-39,-89,-32,-7,-5,10,-23
1482546065091417,-12,-21,14,-5,-6,-5,-16,5
1482546065107429,-1,-10,-19,7,2,0,-2,9
1482546065107429,-1,7,13,-12,7,3,-11,-13
1482546065109919,9,12,25,18,2,1,-2,1
1482546065109919,-3,6,-44,15,12,5,-6,16
1482546065130117,5,10,9,-2,-14,-1,5,38
1482546065130117,11,-17,18,1,-3,-8,8,-30
1482546065132114,-11,5,18,-36,3,1,-12,-12
1482546065132114,-6,0,-8,13,4,-2,-6,-14
1482546065145113,7,10,15,19,6,-2,3,-2
1482546065145113,-7,-4,-15,-2,-2,-1,-20,1
1482546065151132,7,-1,15,5,-8,0,79,20
1482546065151132,-1,1,0,-11,4,1,-7,-31
1482546065168144,-4,-1,-2,4,-7,-2,-14,-19
1482546065168144,-3,0,-3,-3,-2,-1,4,10
1482546065169129,-3,-7,-12,-5,-4,0,-7,-16
1482546065169129,6,8,-3,-5,-1,0,-22,4
1482546065190158,26,-6,10,30,-3,-2,22,-11
1482546065190158,-1,-11,-26,-38,-15,-10,-29,-14
1482546065192156,-2,8,13,31,8,-1,-17,-13
1482546065192156,-9,6,8,-1,-2,5,9,16
1482546065205154,3,18,-14,-13,1,0,-14,-3
1482546065205154,-16,-38,-67,-60,-4,0,4,4
1482546065211699,14,7,17,32,1,3,-9,12
1482546065211699,2,7,8,23,1,-1,-5,8
1482546065228267,-4,-2,-10,-7,-9,-3,4,1
1482546065228267,-1,10,9,37,9,2,-5,1
1482546065229266,5,1,-9,-62,-16,-3,9,0
1482546065229266,19,-13,12,34,0,-4,-5,-7
1482546065250337,-13,-1,3,-49,1,1,-10,-13
1482546065250337,-21,0,10,28,5,2,-5,-2
1482546065252281,23,9,3,15,3,-3,-9,10
1482546065252281,-22,-8,11,-19,-9,3,29,11
1482546065264346,-46,-16,-31,-22,-3,-4,-27,6
1482546065264346,-9,-2,-40,10,5,2,39,7
1482546065271350,24,8,19,-6,1,-1,-15,-4
1482546065271350,-54,-11,-39,8,-2,-2,2,-19
1482546065288337,-3,5,6,3,-7,-5,-1,-3
1482546065288337,-5,-15,-1,-12,-1,-2,-40,-14
1482546065289307,-10,9,-5,40,2,5,43,5
1482546065289307,32,17,25,-83,11,1,-6,1
1482546065310882,11,-3,-34,44,-5,-1,4,0
1482546065310882,-27,4,25,7,-9,-7,-10,0
1482546065312410,14,0,5,-27,-3,1,-16,-1
1482546065312410,-1,-8,-9,13,1,3,12,6
1482546065324904,5,9,27,-3,11,1,8,3
1482546065324904,22,4,-3,-1,-5,-1,9,1
1482546065331473,-24,-13,8,-8,-1,-3,-6,-2
1482546065331473,-6,-7,-8,20,6,-3,6,1
1482546065347484,5,-3,17,-52,-18,0,-4,-12
1482546065347484,8,0,2,3,0,-1,1,3
1482546065349482,-8,11,-6,14,7,-1,-3,-1
1482546065349482,3,-8,5,2,0,-2,-1,-3
1482546065370501,32,10,41,39,8,-5,-18,8
1482546065370501,-14,-14,-4,-7,1,6,16,8
1482546065372498,-6,-2,4,-7,-8,-4,-7,-7
1482546065372498,4,2,-8,6,10,0,-13,-1
1482546065384496,-15,3,-4,12,-1,0,19,16
1482546065384496,-11,-5,8,-7,-2,-3,-5,-28
1482546065393513,11,0,-5,-1,1,-4,-10,-12
1482546065393513,-36,2,1,3,-11,-3,-19,-7
1482546065407522,-5,-5,-8,-5,-2,-3,16,-2
1482546065407522,17,13,15,1,8,2,-20,6
1482546065409524,-8,-9,-10,13,-2,-3,4,-15
1482546065409524,8,2,7,-22,-7,-1,6,-7
1482546065429795,-4,-13,-16,3,3,0,13,-7
1482546065429795,5,11,-3,11,4,4,-9,4
1482546065430781,-1,-7,-3,0,-2,-1,-8,6
1482546065430781,7,1,-7,-11,-7,-2,12,9
1482546065443842,-4,-6,-10,-1,2,-2,-8,-14
1482546065443842,11,4,7,13,2,1,-14,0
1482546065452796,-12,1,6,-25,-1,4,45,28
1482546065452796,10,2,10,2,-4,-2,-8,-2
1482546065467807,-1,-9,-40,9,-3,-4,-45,-26
1482546065467807,1,2,-6,8,0,-1,38,16
1482546065467807,-6,-13,-7,-1,2,1,-22,-4
1482546065467807,4,8,13,-3,0,1,13,4
1482546065489873,9,2,3,-6,1,2,-2,1
1482546065489873,-20,-9,2,-5,-3,-4,-10,-10
1482546065490848,-4,2,7,7,-1,-3,-40,-9
1482546065490848,22,0,-9,6,0,0,-60,-2
1482546065503883,1,0,-4,-4,-2,5,53,63
1482546065503883,2,1,3,2,2,2,8,15
1482546065512451,-6,-1,4,4,-1,-2,-14,-6
1482546065512451,0,2,-5,-7,-4,-2,10,-1
1482546065527027,1,3,5,5,2,-1,-25,-23
1482546065527027,4,8,14,-1,5,2,13,12
1482546065528023,-8,-13,-11,-4,-5,-3,6,6
1482546065528023,5,-7,-8,-2,-2,-4,-63,-29
1482546065550038,-5,0,-4,-7,-5,2,52,10
1482546065550038,6,7,6,5,3,1,-2,-1
1482546065550038,-2,3,-1,8,-4,-3,3,-11
1482546065550038,1,-5,-17,-4,-4,-2,1,6
1482546065564052,-11,5,30,-33,-11,-3,-28,-16
1482546065564052,2,-15,-50,-6,5,1,13,-4
1482546065572057,8,2,-7,6,6,2,-8,6
1482546065572057,-12,-1,0,18,5,2,33,11
1482546065587066,22,9,46,1,-4,-3,-34,10
1482546065587066,5,-12,-13,-17,-8,-3,10,-1
1482546065595074,-3,-31,-37,-40,-8,-1,35,16
1482546065595074,-3,7,-10,13,-3,-3,-2,-10
1482546065610081,-5,5,-4,-11,2,1,-35,-9
1482546065610081,-1,-1,-13,1,2,-2,3,-2
1482546065610081,-4,1,15,-1,-4,-3,-18,-2
1482546065610081,20,2,7,-3,-5,-1,10,-17
1482546065633242,-17,-16,-18,5,3,-2,-25,-25
1482546065633242,-1,12,23,0,-4,-2,-23,-16
1482546065633242,-8,-7,-24,9,2,-1,2,-5
1482546065633242,-8,12,41,7,0,-1,3,8
1482546065647267,8,6,-1,8,-1,-3,-36,-40
1482546065647267,13,4,29,-2,5,4,-45,25
1482546065648264,-21,5,7,44,-3,0,25,5
1482546065648264,-3,-8,-22,-9,-3,-3,-1,5
1482546065669386,-12,-15,-9,-78,-4,1,9,-9
1482546065669386,5,4,-24,19,-1,1,-15,-5
1482546065670359,13,10,30,-27,-5,-4,-11,-1
1482546065670359,-7,8,20,50,14,2,2,7
1482546065693377,5,-5,-59,35,14,9,41,17
1482546065693377,-8,4,25,-58,-14,-6,-1,-3
1482546065693377,5,14,8,17,-1,0,-3,8
1482546065693377,2,6,1,-48,0,5,35,28
1482546065707385,6,4,-12,38,-4,-9,-1,-14
1482546065707385,-17,-35,-1,10,1,-7,-18,-26
1482546065708385,-14,-11,-3,10,7,1,-47,-47
1482546065708385,14,16,16,-24,-11,-8,-86,-8
1482546065729503,7,2,21,28,10,17,107,113
1482546065729503,0,8,9,9,-1,-5,-43,-44
1482546065730505,-3,-2,13,-9,0,2,14,-10
1482546065730505,-4,-36,-33,0,-3,-2,26,14
1482546065752574,-1,6,16,-4,0,-4,-5,-7
1482546065752574,6,11,-8,-4,-4,-2,27,3
1482546065752574,10,8,-18,-6,-1,2,62,12
1482546065752574,-11,-3,-2,-3,2,2,-6,-16
1482546065767583,0,-5,-2,6,-3,-5,-25,-27
1482546065767583,-1,-2,10,-1,-4,-2,32,18
1482546065767583,-2,8,4,6,6,-3,-48,-26
1482546065767583,-6,7,-20,3,-1,3,30,11
1482546065789587,0,-6,28,19,-6,-6,-3,-12
1482546065789587,-12,-16,5,-30,14,3,-23,-7
1482546065790553,-3,-8,-15,-26,-23,0,55,62
1482546065790553,7,3,5,-6,12,-6,-62,-53
1482546065812652,-8,8,-25,-14,-4,3,3,4
1482546065812652,-1,0,29,19,3,-1,-17,-17
1482546065813129,14,22,-2,20,-4,-1,2,3
1482546065813129,-7,-4,15,-16,-12,-4,9,-1
1482546065826649,-8,-3,-12,0,2,-4,18,-1
1482546065826649,8,7,-6,21,1,1,-61,10
1482546065827742,11,-6,4,-18,4,5,33,23
1482546065827742,-4,5,-15,2,-8,-2,13,8
1482546065849869,-2,-6,4,-1,2,-4,-57,-24
1482546065849869,-1,-1,-31,5,-7,-3,-21,-21
1482546065850836,5,-6,-9,-1,3,-1,27,33
1482546065850836,-3,-2,-11,43,3,3,-1,3
1482546065863847,0,-3,18,-19,-7,-2,5,-1
1482546065863847,2,3,-34,-21,-7,-3,12,4
1482546065871881,-6,-2,-12,-31,-8,-2,-33,-21
1482546065871881,-3,-4,29,-3,-4,-3,16,-3
1482546065886891,-1,2,12,18,7,-2,-14,-3
1482546065886891,1,5,18,20,1,2,29,9
1482546065887838,-5,6,16,0,5,-2,-18,-7
1482546065887838,-1,-6,-29,-8,-6,-3,50,49
1482546065909910,-12,5,3,4,-12,-3,-56,-67
1482546065909910,29,9,13,-3,9,4,65,42
1482546065910882,-7,-23,14,23,3,-1,-20,-23
1482546065910882,-14,0,-85,-42,-11,-1,25,-5
1482546065932002,11,4,25,-19,-4,-6,-17,12
1482546065932002,-26,-12,-44,7,-2,-5,-21,-20
1482546065932998,6,-5,8,-19,-9,-4,-9,-32
1482546065932998,7,7,38,20,9,3,-47,-5
1482546065947013,-9,-20,-17,-10,-3,-2,-12,-1
1482546065947013,5,6,9,15,6,4,23,12
1482546065948008,2,-3,-46,12,-6,-3,-22,-8
1482546065948008,-5,-4,24,-7,5,3,-9,-1
1482546065970030,-2,-1,-65,-4,-1,3,33,16
1482546065970030,-3,-10,38,2,-4,-5,-18,-5
1482546065970030,-6,3,3,-6,1,-2,44,6
1482546065970030,-7,-6,11,14,-5,-1,-65,-15
1482546065992140,10,10,8,-6,9,4,9,9
1482546065992140,-4,-17,24,13,1,7,37,17
1482546065993090,-4,-4,-87,-10,-5,-7,-40,-5
1482546065993090,4,-8,-1,-37,-12,2,23,0
1482546066007121,3,7,45,0,4,-1,-20,5
1482546066007121,-6,4,-7,-7,-1,8,70,52
1482546066008093,9,11,31,6,-1,-4,-34,9
1482546066008093,-21,-6,7,2,2,-7,6,-20
1482546066029658,-3,-7,-28,10,5,3,0,8
1482546066029658,6,14,9,-9,-12,0,-5,5
1482546066030628,3,-7,19,29,28,7,-26,-4
1482546066030628,13,-2,18,21,-9,-3,28,13
1482546066052816,-22,-12,-21,-49,-15,-7,4,-6
1482546066052816,-5,-7,-38,19,0,-4,-13,-12
1482546066053790,8,27,97,20,16,10,2,6
1482546066053790,22,-28,-118,-33,5,-3,-24,-33
1482546066066828,-23,-39,-44,-25,-13,-10,-2,-8
1482546066066828,10,26,119,68,7,0,-24,-9
1482546066067802,-6,6,-78,-16,-1,5,-15,-17
1482546066067802,8,17,127,23,4,3,35,29
1482546066089920,10,7,68,24,2,0,-36,-18
1482546066089920,2,-6,-46,-25,-4,-2,19,13
1482546066090935,-31,-9,3,10,-4,-7,18,7
1482546066090935,-1,3,15,14,4,4,-1,-3
1482546066112537,5,12,1,3,-4,0,7,5
1482546066112537,-3,-2,16,21,6,3,-18,-9
1482546066113482,-3,-9,-23,-30,-12,-8,-22,-15
1482546066113482,-7,-4,-32,-32,-6,-2,20,7
1482546066127164,-2,14,8,23,8,9,54,28
1482546066127164,-3,-1,-22,-34,-12,-15,-63,-32
1482546066128377,-15,-20,-4,-12,-6,-6,-1,-9
1482546066128377,14,-1,-40,12,2,-3,-1,0
1482546066149440,8,28,86,41,13,11,-27,-5
1482546066149440,-23,-58,-95,-42,-22,-5,36,13
1482546066150417,9,5,11,-31,4,0,0,2
1482546066150417,-3,6,56,25,5,1,-2,-2
1482546066172464,10,9,-8,16,6,4,4,7
1482546066172464,-8,12,15,8,5,6,-7,-4
1482546066173465,-3,10,13,0,-6,-2,4,7
1482546066173465,-57,-8,-59,-6,-8,-8,-6,-7
1482546066187601,-4,-23,-66,-33,-19,-9,2,-2
1482546066187601,1,9,3,-20,4,-3,-45,-26
1482546066188094,29,3,27,66,11,6,11,2
1482546066188094,23,25,18,-36,14,9,12,6
1482546066209873,-4,-9,-9,-25,-13,-6,2,8
1482546066209873,8,11,10,38,-1,-8,-77,-45
1482546066210857,14,-2,8,1,-5,8,95,35
1482546066210857,-2,8,20,17,-3,-4,-24,0
1482546066232874,-10,-9,-13,-2,-1,-1,3,-9
1482546066232874,19,3,25,-20,1,2,15,5
1482546066239906,-61,-11,30,11,1,-4,-62,-37
1482546066239906,1,-17,-54,10,-7,-3,18,1
1482546066247003,6,3,57,16,1,1,1,3
1482546066247003,4,8,-51,-45,4,2,17,15
1482546066247976,-1,-20,-13,28,-4,-8,-17,-11
1482546066247976,12,0,2,-69,-8,11,15,10
1482546066270017,-5,2,18,21,12,-4,-17,-12
1482546066270017,14,-13,-16,7,-7,0,16,3
1482546066270969,10,14,2,-6,-8,-1,1,9
1482546066270969,-11,-8,58,2,-2,-5,-15,-8
1482546066292035,4,-18,-85,24,3,0,16,5
1482546066292035,-18,-9,13,16,-3,-4,3,4
1482546066293008,27,16,-2,-16,2,2,4,20
1482546066293008,-4,1,35,31,2,-4,-8,-28
1482546066307162,-6,0,-33,-59,2,-2,-88,-49
1482546066307162,20,8,19,8,2,6,73,61
1482546066308115,-9,-7,-6,-36,-5,-1,-7,3
1482546066308115,1,-4,1,68,-5,-3,-20,-6
1482546066329820,-1,-9,11,-22,-4,-4,3,-11
1482546066329820,-7,3,-44,-18,0,-4,-33,-6
1482546066330820,7,8,16,-4,-2,-4,-53,-23
1482546066330820,-9,-5,-45,-16,10,9,59,48
1482546066351838,14,11,-11,25,-4,-1,15,20
1482546066351838,-4,3,18,-33,6,2,-13,-50
1482546066352823,1,2,3,-26,-6,12,46,38
1482546066352823,3,-4,42,22,-15,-17,-45,-21
1482546066366849,-1,7,10,-7,18,8,-8,5
1482546066366849,-20,-1,44,40,-10,-8,-14,-12
1482546066367845,8,-4,9,42,12,3,1,-10
1482546066367845,12,7,23,-42,-4,1,3,4
1482546066389864,6,4,-13,37,-2,1,4,3
1482546066389864,-1,-4,-4,-24,-3,-2,0,-16
1482546066390850,1,4,-4,-9,3,-2,4,7
1482546066390850,14,-2,-14,12,7,1,-47,-37
1482546066411918,-7,2,51,-9,-1,8,90,88
1482546066411918,-23,-2,-68,-2,2,1,-96,-61
1482546066413410,8,-13,43,42,-15,-4,111,103
1482546066413410,9,-6,-28,-8,6,-4,-74,-32
1482546066427409,-20,1,-20,3,8,0,-19,-16
1482546066427409,7,0,75,-34,-17,-9,7,3
1482546066428400,8,1,-49,15,12,-3,-48,-43
1482546066428400,-24,-12,-20,-45,2,2,41,25
1482546066449473,6,-1,57,-1,-7,-5,-3,-10
1482546066449473,20,12,-13,41,13,3,22,30
1482546066450475,-3,3,6,-16,7,0,-36,-37
1482546066450475,4,10,-17,-1,-3,-1,3,19
1482546066472532,-3,-7,-9,-11,-4,1,8,-14
1482546066472532,-3,0,29,58,-7,1,89,52
1482546066473477,-11,-8,-18,-40,-6,-6,-41,-33
1482546066473477,-4,0,-36,16,11,7,-15,-1
1482546066487515,3,-2,6,31,6,13,65,54
1482546066487515,10,-7,-4,-52,-4,-5,-60,-4
1482546066488492,-4,4,6,23,-6,-6,-86,-43
1482546066488492,-7,-2,28,35,-7,-4,40,11
1482546066509560,8,7,21,-46,-8,-8,-32,-23
1482546066509560,2,-7,-8,29,14,8,7,2
1482546066510533,-7,-12,-80,-47,-1,4,39,13
1482546066510533,-3,6,55,31,-7,-8,-65,-46
1482546066532218,4,-5,18,30,-7,-4,44,30
1482546066532218,-3,3,6,-25,-14,-3,9,9
1482546066533216,-8,-1,31,29,8,-4,-26,-18
1482546066533216,6,4,-15,-46,9,7,20,13
1482546066546306,2,2,-11,-36,-7,-7,-14,-13
1482546066546306,-12,-5,-34,-10,-8,-2,-16,-10
1482546066554335,-1,-1,44,13,-8,3,17,3
1482546066554335,5,-2,-2,15,13,3,36,28
1482546066569289,-5,0,-6,-22,0,-5,-52,-34
1482546066569289,-5,-3,-4,-12,2,-5,-4,-9
1482546066570321,3,2,13,-11,-15,-2,0,1
1482546066570321,-3,-5,-30,-27,-11,-4,8,5
1482546066593341,-1,1,16,9,20,11,-7,-6
1482546066593341,-2,0,6,43,8,9,10,1
1482546066594337,-5,-5,2,16,-9,-9,-5,-2
1482546066594337,-2,-3,-5,-25,-18,-8,-7,-1
1482546066606316,-4,-8,-31,1,11,-6,-12,-12
1482546066606316,5,9,4,-55,-7,7,15,14
1482546066614914,-4,-4,-3,1,-4,-3,-6,-6
1482546066614914,-2,3,6,8,-2,4,9,0
1482546066629495,2,4,-15,-8,-14,-8,-21,-12
1482546066629495,0,-2,65,32,7,1,4,-2
1482546066630494,-5,-11,-68,-74,0,-4,1,-5
1482546066630494,-2,4,50,28,-3,-5,-24,-14
1482546066652553,-5,-6,2,12,-16,-7,12,4
1482546066652553,-1,2,-7,15,2,2,-5,-2
1482546066652553,3,2,14,-12,12,5,-16,-6
1482546066652553,-9,-3,41,62,-9,-4,14,3
1482546066666524,5,-3,-34,-63,-34,-9,-17,-10
1482546066666524,-3,-4,-42,30,28,2,10,-1
1482546066674569,1,9,-21,-17,1,-5,-4,8
1482546066674569,9,10,-8,12,-8,2,2,6
1482546066689522,0,6,18,-60,-44,-7,-10,-3
1482546066689522,-10,-12,11,76,62,11,4,-2
1482546066690523,0,7,5,-12,-4,8,15,5
1482546066690523,1,-1,-22,3,10,-3,6,3
1482546066712598,2,10,7,33,-6,-1,-1,2
1482546066712598,-2,-7,-23,-86,-34,-11,-11,-4
1482546066712598,-4,-8,29,38,-5,-5,-3,-2
1482546066712598,-3,1,0,-7,11,2,12,3
1482546066726577,-3,-5,-13,5,9,3,-9,-10
1482546066726577,3,-1,-29,-41,-14,-3,4,8
1482546066734687,-4,-1,28,48,14,3,-21,-3
1482546066734687,9,-5,-17,-29,-16,-7,38,22
1482546066757706,2,-3,-30,42,29,4,-7,-1
1482546066757706,-5,25,70,3,-6,3,-16,-2
1482546066758686,-26,-40,-26,-21,13,5,23,6
1482546066758686,-6,-6,28,3,-35,-15,-22,-15
1482546066772700,4,1,-5,37,21,8,9,7
1482546066772700,6,6,8,-27,-17,-10,-7,-2
1482546066772700,6,17,-41,-15,-29,-12,-18,-5
1482546066772700,5,2,-33,28,55,21,3,4
1482546066795731,0,-11,99,-16,-7,-3,-36,-22
1482546066795731,-4,-3,25,41,-26,-11,51,12
1482546066795731,3,6,24,-33,2,4,5,-6
1482546066795731,-22,-8,-12,-18,-5,-5,1,-11
1482546066809779,11,17,7,18,7,3,-54,3
1482546066809779,-1,-12,-48,-28,11,3,-10,-13
1482546066810731,4,6,20,28,-8,-5,25,-16
1482546066810731,-3,6,39,-26,-17,-6,-42,-10
1482546066832529,-6,1,-31,9,12,8,48,14
1482546066832529,-2,-19,5,-6,-10,-5,-15,-7
1482546066832529,12,1,-32,-36,1,5,7,16
1482546066832529,1,1,5,66,23,-1,-28,-29
1482546066846574,-8,1,-30,-9,-1,7,10,2
1482546066846574,20,1,15,13,7,5,3,0
1482546066854577,-25,-8,2,-13,-33,-7,1,-6
1482546066854577,-3,-6,-71,-40,21,2,-14,-1
1482546066869589,-10,-9,-10,9,2,-5,43,4
1482546066869589,10,13,15,-3,-10,-3,-25,4
1482546066870543,11,11,106,74,24,11,4,3
1482546066870543,-8,-7,-62,-98,-31,-11,5,1
1482546066892601,-9,-21,-36,-6,-12,-14,23,-4
1482546066892601,-11,-1,-10,-38,-16,-5,-41,-15
1482546066892601,5,9,29,42,1,-4,-6,8
1482546066892601,8,1,45,34,43,30,18,16
1482546066906615,-7,5,-30,-6,-13,-5,-5,-5
1482546066906615,-9,2,7,25,-5,-7,8,3
1482546066915130,8,-10,-36,7,2,-3,-10,-2
1482546066915130,-11,1,-6,-47,-13,-4,10,3
1482546066929774,19,10,10,14,7,3,-10,-1
1482546066929774,-14,-3,10,31,4,-5,-92,-65
1482546066930769,21,-3,-32,-29,-2,2,84,55
1482546066930769,13,13,-9,5,3,2,-61,-10
1482546066951789,-33,11,48,57,4,9,27,3
1482546066951789,-4,-44,-96,-82,-18,-11,6,7
1482546066952777,4,6,14,10,1,-4,-18,-17
1482546066952777,2,-10,-6,14,-21,-11,5,-7
1482546066976799,11,2,-27,5,9,-4,-25,-6
1482546066976799,4,19,30,8,16,13,34,26
1482546066977799,-10,-8,-8,-28,-7,-2,-19,-14
1482546066977799,3,2,57,28,19,5,20,15
1482546066989854,5,10,-37,-23,-12,1,-5,1
1482546066989854,-8,-22,52,10,-2,-4,20,6
1482546066990826,15,6,30,24,10,-2,-101,-79
1482546066990826,-28,-3,53,-4,-16,5,48,54
1482546067011812,-13,-6,3,-28,3,0,14,4
1482546067011812,0,3,-26,-7,2,0,13,6
1482546067012812,-3,7,-8,17,3,1,-57,-34
1482546067012812,15,-5,15,-3,2,2,57,14
1482546067026846,4,-8,-1,-25,-2,-1,-42,-7
1482546067026846,-8,5,-12,35,-1,-4,-6,23
1482546067034923,1,6,-28,-33,-3,0,-11,-11
1482546067034923,10,0,-30,-3,5,-3,1,0
1482546067049975,-15,-15,11,-13,17,6,11,2
1482546067049975,12,13,-27,8,-9,-1,20,10
1482546067050936,21,1,-5,-13,9,-2,13,14
1482546067050936,-45,-16,-23,-8,-14,-12,-24,-25
1482546067071992,6,7,22,54,0,3,45,28
1482546067071992,-11,-2,15,-36,-2,0,-29,-38
1482546067072934,-4,-3,-23,-2,6,1,22,23
1482546067072934,21,9,37,2,-3,1,35,6
1482546067086964,-8,-14,-55,-42,-35,-29,-72,-28
1482546067086964,3,3,-10,59,10,4,7,-10
1482546067095003,-11,-3,-9,-47,2,3,67,7
1482546067095003,-1,-7,-91,-36,-22,-6,-62,-15
1482546067110015,8,0,20,17,3,1,-15,-3
1482546067110015,12,5,-17,-64,6,10,33,30
1482546067110987,-17,0,17,95,18,1,-40,-25
1482546067110987,18,0,37,26,12,16,-8,-17
1482546067132134,-34,-8,-20,-5,-5,-10,-7,-4
1482546067132134,-4,-1,7,-9,-7,2,-5,-1
1482546067133122,5,5,28,15,8,6,-4,-2
1482546067133122,13,15,29,-4,7,4,88,68
1482546067146221,-9,-27,-71,1,-12,-4,-45,-33
1482546067146221,-9,11,34,37,4,-6,6,1
1482546067155226,29,8,-7,-14,-15,-3,-17,-19
1482546067155226,-49,-20,2,-2,-6,-5,-2,8
1482546067170236,18,-8,-22,-14,7,1,5,-31
1482546067170236,-17,-17,1,16,-13,-7,33,32
1482546067170236,3,17,-36,-14,-3,-5,-24,-26
1482546067170236,9,9,36,31,-4,-11,-41,-31
1482546067192250,12,11,47,17,10,9,30,17
1482546067192250,0,0,6,-6,8,6,-33,-45
1482546067193222,-5,-11,8,-11,-7,0,6,62
1482546067193222,18,5,-19,-12,5,1,-4,-75
1482546067215832,-8,2,25,1,-6,-5,33,71
1482546067215832,10,9,39,25,-7,-8,-12,12
1482546067216330,-9,-28,-36,30,9,-5,1,1
1482546067216330,11,9,-20,-52,3,5,-32,-17
1482546067229327,2,-14,53,6,-15,-6,-6,-12
1482546067229327,-5,-3,-58,-32,5,-2,17,-12
1482546067230394,-25,8,36,12,-5,3,26,15
1482546067230394,23,-3,-5,38,-6,-3,-26,2
1482546067252423,-6,-8,119,58,15,12,-15,-22
1482546067252423,-7,2,-87,-87,-7,-3,-7,-3
1482546067253410,-25,-17,64,57,-7,-3,-14,-25
1482546067253410,4,6,38,27,20,7,7,-33
1482546067275458,4,2,39,-32,-8,-11,6,39
1482546067275458,11,3,-43,-1,0,4,-10,-8
1482546067276453,-5,-1,-19,-50,-11,-4,12,6
1482546067276453,3,4,-17,-24,5,3,-7,7
1482546067289489,14,6,7,66,2,0,-2,-12
1482546067289489,-35,-7,4,-14,8,5,13,16
1482546067290463,18,5,17,46,-17,-13,9,4
1482546067290463,-9,-11,6,-7,-5,-6,-28,-19
1482546067312505,12,14,-34,-54,1,2,-3,-15
1482546067312505,3,-4,-22,13,9,5,28,15
1482546067313455,-17,-4,23,-37,-14,-16,-19,-9
1482546067313455,-1,5,-57,-94,3,10,-3,3
1482546067334654,4,15,-5,11,5,7,-4,5
1482546067334654,-1,-34,28,25,-6,-10,-17,-14
1482546067335637,6,6,58,7,2,-3,-20,-14
1482546067335637,-12,-16,-36,20,-32,-14,54,50
1482546067349661,-1,10,-1,-22,26,11,-14,-27
1482546067349661,14,4,30,28,10,-4,0,13
1482546067350648,-1,19,16,-12,7,10,12,1
1482546067350648,-20,-36,-62,28,-8,-8,-23,-4
1482546067372677,1,2,18,-48,-18,-8,0,-18
1482546067372677,2,1,21,8,-13,-1,3,2
1482546067372677,4,-2,-18,-7,12,-1,10,16
1482546067372677,5,18,54,20,2,3,23,34
1482546067394698,-5,-4,12,15,11,2,-9,-11
1482546067394698,-21,2,13,10,-2,-2,-9,-10
1482546067395680,1,-14,-20,-75,-19,-2,17,15
1482546067395680,10,28,-23,19,-7,-3,-24,-10
1482546067409708,9,3,15,17,21,-6,1,-5
1482546067409708,7,16,49,-21,-22,-1,-6,-4
1482546067410690,-14,-25,-73,-20,5,4,7,11
1482546067410690,-5,-1,30,10,-14,-7,2,4
1482546067431829,-6,-1,-27,-6,-24,-15,0,1
1482546067431829,16,21,43,11,34,26,-2,-6
1482546067432812,0,-3,-30,24,28,1,13,12
1482546067432812,7,-4,-65,-26,-12,1,-25,-16
1482546067454836,-2,-6,-25,-39,-15,-11,25,14
1482546067454836,4,-13,-11,8,-12,-10,-56,-32
1482546067455831,-4,-6,29,-5,3,1,49,48
1482546067455831,-13,-7,-15,-23,-1,-10,-33,-12
1482546067469853,4,10,79,84,1,5,40,39
1482546067469853,3,-2,-51,-43,-15,-2,-1,-10
1482546067470866,-18,11,-85,-11,5,11,-5,-9
1482546067470866,37,-11,73,32,4,-1,-1,-7
1482546067491909,-2,-2,-28,-27,-5,0,-19,-3
1482546067491909,-1,-3,19,25,-7,-11,17,9
1482546067492867,0,-4,-20,-65,-5,-1,-20,-49
1482546067492867,-9,12,111,41,-7,0,-5,13
1482546067515074,9,5,-40,-2,-7,2,-21,-42
1482546067515074,10,-5,-28,12,11,3,25,31
1482546067516025,-4,-1,-1,-58,-14,-4,36,26
1482546067516025,-3,5,-40,-53,15,6,-2,-7
1482546067529728,-38,-42,-26,50,-15,-17,-22,-15
1482546067529728,12,6,21,6,0,-6,-5,-7
1482546067530807,-2,-7,-16,-17,7,-1,-15,-34
1482546067530807,4,11,27,14,10,10,-26,-21
1482546067551924,-8,-14,-102,-28,-4,3,42,48
1482546067551924,-10,-6,-26,-3,-1,-8,-75,-76
1482546067552880,10,11,63,62,9,10,5,26
1482546067552880,22,-15,-61,-36,-13,-16,63,26
1482546067574943,-26,15,76,-37,0,3,-34,-35
1482546067574943,0,-7,-20,11,-1,-3,-10,-1
1482546067575894,10,-8,12,-3,-10,0,-15,-2
1482546067575894,-20,-6,-52,-6,25,7,5,13
1482546067589907,26,36,87,-5,-7,2,-22,-30
1482546067589907,-15,-8,-2,2,8,-3,19,22
1482546067590903,17,21,56,31,-7,8,6,18
1482546067590903,-6,-10,2,13,12,-6,4,-5
1482546067611969,2,-8,-48,-24,-11,2,-15,-8
1482546067611969,-18,12,31,-21,7,7,-8,-16
1482546067612941,-4,-8,7,8,-2,-4,-11,-16
1482546067612941,11,0,8,43,-8,-7,-76,-97
1482546067635079,-5,6,-43,-1,23,16,92,87
1482546067635079,11,15,51,-14,-8,-5,-16,-27
1482546067635079,-13,-13,-35,3,-6,-2,-4,-9
1482546067635079,0,2,-11,-52,-7,-3,-4,-15
1482546067650078,11,-3,17,24,9,3,-15,4
1482546067650078,9,-3,3,6,1,7,17,6
1482546067650078,-13,6,-82,13,-3,-6,-9,-1
1482546067650078,-10,2,16,-53,-8,-5,-3,4
1482546067672145,10,-10,9,24,6,0,-70,-68
1482546067672145,-15,-16,-5,4,-13,-15,101,65
1482546067673121,-8,11,46,21,-7,-5,-25,-13
1482546067673121,9,8,5,38,-6,-3,13,28
1482546067695137,-9,-7,-56,-58,0,-3,0,6
1482546067695137,17,5,34,17,9,8,-34,-34
1482546067695137,12,9,29,-12,-6,-2,15,3
1482546067695137,-14,-5,-1,95,7,-2,-13,-3
1482546067710147,6,-8,14,-90,-11,-2,21,27
1482546067710147,-7,-1,-9,5,0,0,-8,-14
1482546067710147,13,-2,-24,-17,0,0,19,32
1482546067710147,-8,8,74,13,2,4,6,11
1482546067732290,-21,-32,-88,15,-4,-4,-23,-26
1482546067732290,29,11,71,-12,1,1,-23,-19
1482546067733274,-21,-15,26,-41,-10,-9,24,24
1482546067733274,-11,-3,16,-12,-6,1,73,59
1482546067754344,6,8,18,37,8,1,40,8
1482546067754344,1,5,-40,-27,-6,-3,-58,-8
1482546067755318,6,-4,-36,-11,6,4,-48,-44
1482546067755318,-2,-2,40,-4,-2,8,8,3
1482546067769365,7,8,20,39,1,-8,-34,-10
1482546067769365,-2,3,-19,13,-4,3,99,77
1482546067770362,14,1,28,23,7,-2,-43,-61
1482546067770362,-42,-18,-31,-17,-2,-5,54,67
1482546067792381,9,13,26,-30,2,5,-38,-33
1482546067792381,0,7,-19,59,4,5,-15,-28
1482546067793370,-14,-34,-28,-77,-20,-12,9,13
1482546067793370,10,-6,-53,-3,-4,-6,-25,-20
1482546067814399,3,7,11,7,4,-3,12,-7
1482546067814399,-24,0,38,7,11,7,5,31
1482546067815914,1,8,-37,31,4,1,17,0
1482546067815914,-1,1,-36,-17,-11,-3,-43,-34
1482546067829414,4,-1,36,24,0,-4,12,4
1482546067829414,11,-3,-28,-61,-6,2,-35,-37
1482546067837542,-8,5,7,23,-3,-2,53,54
1482546067837542,22,20,33,-65,6,2,-16,-22
1482546067852553,-4,-36,-37,90,-9,-8,-7,-8
1482546067852553,8,23,85,24,-8,-1,23,18
1482546067852553,-8,-3,-23,33,29,2,-27,-16
1482546067852553,-14,-6,31,17,0,11,11,27
1482546067874570,9,10,-14,-36,-10,-6,-15,-18
1482546067874570,-2,13,77,-26,10,0,-9,-3
1482546067875566,-1,-11,-2,59,-22,-12,-25,-24
1482546067875566,1,-22,9,-10,6,2,32,31
1482546067888654,2,19,35,7,6,3,5,2
1482546067888654,-3,-13,-13,-7,-14,-6,7,16
1482546067897657,11,24,22,-11,6,6,9,4
1482546067897657,-2,-7,-45,3,-2,-4,-45,-35
1482546067912668,-7,-2,23,-10,-5,-1,12,10
1482546067912668,1,-9,-52,-10,1,-3,11,4
1482546067912668,-4,-11,-31,-50,-5,0,-28,-16
1482546067912668,0,3,22,62,5,-2,-9,-25
1482546067934799,1,3,-13,-25,-5,5,8,14
1482546067934799,-10,-23,-105,-24,-15,-12,14,19
1482546067935803,6,8,77,19,14,2,-26,-24
1482546067935803,1,21,42,-24,-21,-4,9,-13
1482546067948865,1,9,10,7,18,3,11,17
1482546067948865,4,-3,18,37,2,1,-44,-43
1482546067956872,7,15,30,-5,-21,-9,8,32
1482546067956872,34,-1,-32,9,10,9,19,17
1482546067971882,-44,3,35,-6,15,3,-20,-19
1482546067971882,-4,-2,-4,-4,2,1,-7,-11
1482546067972825,-1,-27,44,-29,4,-2,-1,-1
1482546067972825,-12,5,-15,38,-15,-10,10,-5
1482546067994897,12,0,-15,-36,-2,5,9,14
1482546067994897,-4,-1,32,43,6,-2,-40,-25
1482546067995869,-8,-2,4,18,4,2,4,15
1482546067995869,-6,2,-29,-51,-2,4,44,17
1482546068008907,-1,10,41,8,-12,-6,-8,11
1482546068008907,-7,-7,-56,-49,-6,-4,16,9
1482546068017475,17,3,-1,0,9,4,-17,-27
1482546068017475,-12,-6,8,14,-2,-6,-26,-21
1482546068032050,6,8,19,11,5,-3,3,6
1482546068032050,0,-10,-71,-18,-3,-2,1,-5
1482546068033033,-4,2,14,-1,-7,1,23,-2
1482546068033033,-3,-1,16,13,10,-4,-50,-5
1482546068055145,3,-4,-29,-29,-9,5,8,2
1482546068055145,1,-7,94,10,7,3,18,22
1482546068055145,11,22,-31,34,-5,5,10,-3
1482546068055145,-23,-34,-45,-64,2,-4,4,-4
1482546068069180,0,-33,-74,-3,-6,-8,-9,-9
1482546068069180,0,12,4,-23,-1,-1,-11,-7
1482546068077187,5,6,22,1,0,-3,-26,-26
1482546068077187,10,16,27,24,7,9,71,71
1482546068092169,6,-10,-9,-9,2,3,-49,-11
1482546068092169,-7,6,58,29,-2,-3,-15,-24
1482546068093142,-28,-35,-52,0,-5,-4,46,-11
1482546068093142,20,13,-11,-4,-3,1,-36,-14
1482546068115188,-5,18,8,-18,-10,-13,-5,-4
1482546068115188,-10,-4,-102,-25,0,5,18,25
1482546068115696,-9,-4,70,54,11,4,-23,-3
1482546068115696,3,-17,32,-38,-19,-11,-42,-49
1482546068138331,21,2,31,-2,4,4,48,30
1482546068138331,13,-6,-2,-1,-2,-7,-25,-19
1482546068138331,-4,19,-16,-16,4,5,3,8
1482546068138331,-2,20,61,14,-5,-3,-13,-20
1482546068152483,-1,-2,-5,0,-3,-5,8,-5
1482546068152483,7,-2,-6,-29,9,8,-7,16
1482546068153428,3,-3,2,-2,-8,-6,-12,10
1482546068153428,18,4,82,45,34,17,41,23
1482546068174498,-22,49,79,12,3,2,-41,-31
1482546068174498,-21,-63,-27,-11,-13,-2,44,19
1482546068175471,17,13,73,1,-22,-19,-17,0
1482546068175471,-10,-14,-7,6,-11,-11,-45,-29
1482546068197517,15,22,6,27,20,9,25,7
1482546068197517,-5,3,-8,5,5,7,13,25
1482546068198491,3,16,-12,-20,8,9,-11,-10
1482546068198491,-10,-11,10,22,-10,-6,41,38
1482546068212526,1,-19,-15,-81,-9,-5,-10,-30
1482546068212526,3,17,34,37,-1,2,-6,-19
1482546068213499,-1,-1,10,-38,7,5,-17,-24
1482546068213499,22,-27,-128,62,1,3,64,77
1482546068235164,-47,7,-24,33,-22,-15,-15,-47
1482546068235164,13,-4,29,-13,-3,-9,-24,-7
1482546068235164,-1,4,-11,-4,6,2,-9,11
1482546068235164,-17,-6,-29,-35,6,5,-16,-26
1482546068258197,18,-10,-24,20,0,3,25,44
1482546068258197,0,-2,-57,5,-3,-4,13,5
1482546068259193,-21,-15,-25,3,0,2,26,21
1482546068259193,18,12,24,-17,-6,2,-28,-10
1482546068272207,12,-19,-28,8,-5,-7,-61,-23
1482546068272207,-3,18,42,19,6,1,14,-12
1482546068273203,7,-7,-27,-6,-16,-5,18,18
1482546068273203,-14,6,2,-26,5,9,-23,-19
1482546068294222,-2,-16,4,1,1,1,2,-5
1482546068294222,-2,-8,-4,-8,4,-4,12,4
1482546068295219,-4,-2,-27,-2,-16,-7,-11,0
1482546068295219,3,14,41,-6,-1,-3,15,1
1482546068318251,-1,-31,-29,7,20,4,8,5
1482546068318251,-13,-13,-33,31,-29,-4,-4,6
1482546068318756,2,-2,2,-36,1,-4,8,11
1482546068318756,3,16,18,4,-5,-7,-27,-31
1482546068332350,-2,-16,-18,-32,5,-1,14,20
1482546068332350,2,8,7,8,3,3,-3,9
1482546068333348,0,-2,-43,24,7,2,-35,-38
1482546068333348,1,-22,-102,-42,-22,-8,30,37
1482546068354366,-12,17,28,25,1,3,16,17
1482546068354366,20,2,7,-1,10,4,41,30
1482546068355351,-41,-16,-51,-10,-5,-5,-12,-22
1482546068355351,3,17,42,10,13,2,-26,-26
1482546068377367,0,-27,-80,-8,-11,-6,3,9
1482546068377367,15,27,36,-2,-7,0,-14,-10
1482546068384386,-26,-17,-49,33,14,5,8,9
1482546068384386,1,-9,4,-27,-2,-1,-17,-15
1482546068392461,4,20,42,13,-3,3,9,1
1482546068392461,5,6,-10,-16,-10,-5,-6,-4
1482546068393429,9,-7,28,41,17,5,0,-9
1482546068393429,-10,11,24,0,-3,-1,-48,-35
1482546068414500,7,-4,-25,-17,-9,1,20,17
1482546068414500,-9,5,29,1,9,-6,20,14
1482546068415452,15,9,-8,-31,-15,0,-2,-2
1482546068415452,-19,-34,-21,3,1,-5,-8,-18
1482546068437633,4,-16,-25,-27,-3,0,-17,-9
1482546068437633,-14,-7,32,-1,-6,-8,-19,-14
1482546068438606,9,4,-3,-17,1,0,10,6
1482546068438606,-2,9,11,10,3,9,15,8
1482546068451642,11,22,69,1,-3,-2,-1,-2
1482546068451642,1,-12,-27,-3,6,5,13,10
1482546068459649,6,6,36,-4,-7,-3,-7,3
1482546068459649,-4,-8,24,-8,-8,-6,7,16
1482546068474660,-13,-25,-30,17,4,7,12,-3
1482546068474660,11,12,-30,-3,7,4,-12,0
1482546068475633,11,10,50,-8,-8,-6,-14,10
1482546068475633,-13,-1,8,35,0,-7,-3,-10
1482546068497675,8,10,-27,28,-1,-3,36,37
1482546068497675,-9,-7,52,-14,2,0,-15,-17
1482546068498650,4,-3,-13,-29,4,5,9,19
1482546068498650,0,0,-31,-5,1,0,-28,-15
1482546068512630,0,2,18,4,-3,-1,12,7
1482546068512630,-5,-1,10,6,-4,-4,-11,-6
1482546068512630,2,5,27,25,-2,-1,16,6
1482546068512630,0,-5,-11,-11,2,2,4,-5
1482546068534801,-2,9,43,-32,-5,-6,-26,-17
1482546068534801,-1,4,5,46,2,1,0,-4
1482546068535788,3,-4,-66,-4,-1,-1,14,0
1482546068535788,0,-6,-32,2,1,-1,6,2
1482546068557828,0,-1,4,-10,-2,-1,-11,3
1482546068557828,-6,-9,-20,-10,-2,-2,2,-4
1482546068558801,-2,-9,34,6,-1,1,3,-1
1482546068558801,1,11,-18,-9,-10,-9,5,3
1482546068571867,0,-4,3,10,8,3,-20,-21
1482546068571867,-4,9,3,-4,2,-5,21,10
1482546068572840,-6,-7,-10,2,-5,-6,-25,-30
1482546068572840,1,-8,13,-1,-1,6,36,49
1482546068594854,27,9,5,2,-6,1,10,10
1482546068594854,-12,-2,-10,10,10,4,-15,-12
1482546068595827,7,0,2,-37,-31,-8,-31,-17
1482546068595827,-12,0,-9,0,11,-7,30,17
1482546068618380,-4,-6,4,30,-8,-11,-30,-21
1482546068618380,6,-8,-22,-24,22,16,4,3
1482546068618877,4,12,87,26,3,3,25,5
1482546068618877,10,42,17,-4,-9,-1,-18,-20
1482546068632401,-17,-52,-34,-22,-10,-6,-26,0
1482546068632401,2,-5,-12,5,-5,-5,-9,-20
1482546068633416,2,2,26,14,3,4,61,36
1482546068633416,-7,7,13,-2,-16,-5,-13,-11
1482546068654436,-4,9,-2,-24,9,6,9,-5
1482546068654436,-3,-4,14,28,-13,-8,-21,-18
1482546068655437,3,-4,-29,-30,38,12,-3,6
1482546068655437,6,-1,26,-3,-18,-9,0,-5
1482546068677453,-4,-8,-40,8,16,8,6,-3
1482546068677453,1,13,47,2,7,0,-4,10
1482546068678433,-2,-13,2,34,-13,-14,-3,0
1482546068678433,-3,-22,3,-23,9,4,1,-1
1482546068692455,6,24,38,22,1,2,-2,-5
1482546068692455,-10,-3,-41,-40,-13,-6,-44,-11
1482546068692455,-12,0,7,47,2,2,35,19
1482546068692455,-29,-11,5,-7,-5,-9,-57,-52
1482546068714458,2,5,9,6,-4,1,52,39
1482546068714458,14,2,-32,-11,-3,1,-10,2
1482546068715459,11,-6,-24,-9,0,-1,-9,-9
1482546068715459,6,-3,-31,12,19,18,-13,-9
1482546068738478,-4,9,40,-9,-10,-6,-2,-4
1482546068738478,0,-18,-46,10,9,0,16,3
1482546068739478,-2,-7,-54,-24,5,-1,-14,-2
1482546068739478,-10,6,22,8,-5,-6,14,4
1482546068751487,4,0,2,0,0,-2,3,-10
1482546068751487,0,-1,8,-8,-6,1,2,11
1482546068759493,5,13,17,-3,-5,-4,-11,-1
1482546068759493,23,-1,-15,26,-3,2,-26,-7
1482546068774503,0,35,13,1,-3,3,85,53
1482546068774503,-27,-48,-41,-71,9,-1,-7,-27
1482546068775504,-5,-10,-90,-4,-8,-5,20,24
1482546068775504,4,-53,-73,-9,-8,-5,2,-7
1482546068805577,-5,17,51,15,-9,-10,-43,-19
1482546068805577,8,25,28,7,-7,-2,20,5
1482546068806577,5,-15,-10,-7,2,5,0,-1
1482546068806577,7,7,-21,-3,11,1,9,11
1482546068811547,-19,-14,-31,-6,-1,-2,-26,-18
1482546068811547,-4,6,13,9,-3,-1,-42,-6
1482546068820073,15,15,39,18,5,6,55,33
1482546068820073,-6,17,24,-10,-6,-5,5,19
1482546068834271,-16,-12,-48,3,0,-4,-45,-33
1482546068834271,10,5,36,-6,-2,7,13,5
1482546068835230,-25,20,36,11,2,-5,-34,-32
1482546068835230,12,8,66,22,5,6,21,13
1482546068857288,-14,-13,-53,-4,-2,-6,-4,2
1482546068857288,8,-10,-1,-19,0,-4,-8,-29
1482546068858228,13,6,13,-1,-10,-4,-44,-9
1482546068858228,-14,-6,9,-4,-4,0,48,22
1482546068871297,1,19,7,5,5,5,-16,-9
1482546068871297,0,0,-58,3,-12,-5,13,17
1482546068879303,-24,-25,-12,-23,-7,-1,20,-3
1482546068879303,7,3,-63,5,-1,-7,-14,-11
1482546068894252,30,10,59,49,11,8,8,12
1482546068894252,-35,7,10,-70,6,3,5,-1
1482546068895255,-4,-2,5,-26,-12,1,-10,-1
1482546068895255,-12,-9,-17,-1,-8,-12,-2,1
1482546068917267,15,7,-6,13,-11,-2,12,2
1482546068917267,28,19,45,54,2,0,-17,-1
1482546068918277,-5,-12,1,-9,1,2,40,6
1482546068918277,-8,1,18,-9,-1,-1,-12,2
1482546068931793,-23,-10,-1,-18,-8,-4,-50,-22
1482546068931793,-1,7,-38,21,1,0,70,22
1482546068939812,4,8,65,51,0,1,-24,-9
1482546068939812,-5,2,-17,-100,5,-5,-7,6
1482546068962828,19,-3,27,-3,-21,-9,-9,-20
1482546068962828,-16,-1,-17,51,-9,-11,-5,0
1482546068963829,4,-45,-83,-79,18,3,-3,-10
1482546068963829,-1,-6,-2,68,15,10,8,-3
1482546068976839,14,7,11,28,8,0,9,13
1482546068976839,-22,-12,22,-62,-35,-2,3,11
1482546068977828,28,18,11,42,32,5,-19,-48
1482546068977828,-16,18,27,28,-8,-4,-24,-9
1482546068991849,-40,-46,-41,-49,17,0,24,37
1482546068991849,16,5,41,9,-18,2,0,-3
1482546068999855,-30,-4,-25,-6,7,-4,0,11
1482546068999855,15,22,-2,20,-3,0,16,-2
1482546069014865,6,4,-34,-28,-11,6,0,6
1482546069014865,8,-19,-9,4,18,-8,-27,14
1482546069015872,-7,22,18,18,4,-5,-17,13
1482546069015872,12,-6,-31,12,19,11,-4,-13
1482546069045483,14,12,29,25,-39,-11,-13,0
1482546069045483,11,1,-1,33,59,22,28,4
1482546069046484,-43,-45,-63,-30,-31,-11,-20,-18
1482546069046484,10,8,55,4,-23,-9,16,-5
1482546069051487,29,20,-73,-47,-12,12,-2,-2
1482546069051487,7,-2,33,10,24,0,7,-7
1482546069059493,2,3,38,57,-32,-20,-30,-12
1482546069059493,-3,-3,64,25,3,-8,-7,30
1482546069082531,-52,-66,-19,-114,-34,-18,-32,-33
1482546069082531,19,13,-34,-37,4,3,11,7
1482546069083495,12,27,4,39,-6,1,8,0
1482546069083495,0,-7,21,3,-14,5,3,-16
1482546069097512,19,12,41,56,25,11,14,3
1482546069097512,-11,-14,-27,4,-17,-23,-29,2
1482546069097512,2,-10,36,-33,-3,1,7,11
1482546069097512,0,8,-37,-40,12,4,-17,-14
1482546069120575,-7,3,8,16,19,-1,8,5
1482546069120575,1,10,11,8,-1,10,35,-3
1482546069121569,0,3,-13,-12,-10,-6,-21,-3
1482546069121569,10,-6,-12,6,4,0,-13,1
1482546069134705,2,1,13,-6,15,4,-8,0
1482546069134705,-16,-6,-8,-3,-19,-8,-18,-30
1482546069135704,11,21,-2,24,7,2,-6,23
1482546069135704,-12,-14,-18,-38,-4,9,-5,-20
1482546069156823,-8,-3,21,-3,15,-3,-29,36
1482546069156823,13,14,-10,7,-6,0,28,-14
1482546069157786,14,3,24,2,11,7,-45,-30
1482546069157786,-16,-10,-4,0,-4,-1,99,88
1482546069187845,-28,-5,-17,20,4,-5,-119,-54
1482546069187845,5,-6,-9,-7,-10,1,50,78
1482546069188807,28,4,-2,-24,2,-3,-99,-105
1482546069188807,-102,-5,-8,5,6,15,50,36
1482546069194850,100,18,-6,-13,-4,-7,-35,53
1482546069194850,36,2,11,6,-10,-3,7,-15
1482546069195793,-6,16,-7,-4,7,0,-3,4
1482546069195793,28,-6,-16,-2,13,7,-49,-46
1482546069217306,-38,10,49,94,-7,-5,92,15
1482546069217306,-13,-15,-38,-3,-7,-10,-62,-27
1482546069218334,-28,1,3,-44,3,5,49,30
1482546069218334,15,9,-25,0,-25,-7,-16,-21
1482546069239969,0,4,63,77,20,7,18,-19
1482546069239969,4,9,4,-52,9,5,-27,4
1482546069240972,-6,-3,-35,-24,-3,-4,30,18
1482546069240972,7,-5,-34,-28,-12,-11,-15,-4
1482546069254976,-2,3,-4,-18,1,0,14,-19
1482546069254976,-25,-19,-11,19,-14,-4,-20,-15
1482546069254976,-5,-1,13,-2,-1,1,27,28
1482546069254976,10,-16,0,-7,-5,-8,-32,-20
1482546069277003,-4,-10,-24,-25,-2,-4,18,-8
1482546069277003,-9,11,25,24,3,3,-8,-1
1482546069277984,8,1,-2,-16,-3,7,14,21
1482546069277984,21,11,53,41,1,-10,-35,-8
1482546069300008,-13,-11,-65,-35,3,5,12,-22
1482546069300008,-10,12,3,-9,-7,-5,-39,-7
1482546069300994,16,-12,1,14,4,5,57,39
1482546069300994,-1,2,27,7,-1,-5,-29,-34
1482546069315017,-2,-4,-20,-16,-1,-2,15,3
1482546069315017,-8,1,8,14,-4,-2,33,24
1482546069315017,8,-3,5,10,-7,-8,-103,-73
1482546069315017,5,-3,-2,-3,6,9,102,75
1482546069337570,2,7,-18,-17,2,7,-18,-8
1482546069337570,-5,-2,7,4,-2,-4,5,-13
1482546069337570,-18,-4,10,3,-6,-4,10,24
1482546069337570,10,1,-12,-11,6,0,-18,-29
1482546069360575,-2,-1,-11,-13,-4,-2,-19,4
1482546069360575,-2,1,20,4,2,7,-22,1
1482546069361576,9,-1,-12,4,-3,-4,33,2
1482546069361576,-3,-5,0,1,-1,-2,-31,-38
1482546069374585,-14,-6,9,-8,-3,0,25,31
1482546069374585,-1,-6,2,-4,0,-3,-18,-11
1482546069375585,-1,-1,7,4,-2,-1,5,7
1482546069375585,6,4,-8,-3,0,-2,-4,3
1482546069396600,3,-4,10,-2,1,-3,-4,-19
1482546069396600,-2,6,-2,-1,-7,-5,21,8
1482546069397606,-8,-4,1,0,-4,3,2,3
1482546069397606,-1,3,11,30,22,-8,-5,0
1482546069428167,4,4,23,-2,0,6,15,3
1482546069428167,-4,1,-46,-20,1,11,-5,-4
1482546069428663,2,-13,14,5,9,2,0,0
1482546069428663,-10,-6,-65,-21,-17,-6,-18,-6
1482546069434216,15,2,5,-11,2,-9,-6,-10
1482546069434216,-13,-3,31,39,1,-5,5,-37
1482546069435212,9,6,21,-22,-4,6,63,75
1482546069435212,-4,-4,25,-15,4,7,-61,-35
1482546069457232,-5,3,-13,30,0,-1,-4,-14
1482546069457232,23,11,9,-6,-11,-5,24,17
1482546069458233,2,5,-8,20,0,-7,-36,-32
1482546069458233,7,1,16,7,-11,-5,15,-2
1482546069480251,-27,-7,-4,-42,19,12,34,11
1482546069480251,-32,-22,-26,0,-6,-4,5,1
1482546069481235,-6,-26,20,16,-5,-4,-17,-17
