timestamp,emg1,emg2,emg3,emg4,emg5,emg6,emg7,emg8
1482546947361418,-4,2,9,17,-2,-1,-2,-2
1482546947361418,-10,-11,-15,1,2,-1,-2,-4
1482546947362421,-11,-5,9,-7,-7,0,0,-1
1482546947362421,5,1,15,-1,0,0,-2,0
1482546947366421,1,6,8,8,6,1,1,4
1482546947366421,1,-8,-28,-7,12,8,1,2
1482546947367425,-36,-7,23,16,-13,-9,-4,-4
1482546947367425,-12,4,-12,18,8,4,0,-2
1482546947372500,43,-7,-2,-26,-4,-2,-1,2
1482546947372500,20,14,2,6,-4,-7,-3,-2
1482546947384521,2,-10,-3,0,6,6,0,0
1482546947384521,-14,2,8,1,-3,-3,-2,-3
1482546947387470,-6,-3,-15,5,-2,-3,0,0
1482546947387470,3,-1,18,-2,-7,-2,1,4
1482546947402496,19,4,-11,-11,7,4,1,-1
1482546947402496,10,6,-13,15,-2,-3,0,1
1482546947411502,-9,-5,-16,-47,-5,-2,-2,-3
1482546947411502,-6,-4,-10,-9,6,2,-1,0
1482546947434076,-4,-9,72,33,-10,-7,-3,-4
1482546947434076,13,2,10,22,7,1,-1,1
1482546947434559,-18,-3,-18,3,-3,0,1,-2
1482546947434559,-3,3,1,10,-4,-4,-2,-2
1482546947447569,24,0,-27,-35,3,1,1,1
1482546947447569,-8,-9,-6,-22,-9,0,1,1
1482546947489651,1,4,11,6,-5,-4,-1,-1
1482546947489651,14,2,-7,-23,8,4,1,1
1482546947490654,-9,8,3,44,2,-3,-1,3
1482546947490654,-9,-14,-8,-7,-7,-1,-1,-2
1482546947493655,6,-1,5,-22,4,0,-2,-3
1482546947493655,-1,-5,8,31,12,5,1,-1
1482546947494651,8,2,6,-5,-9,-7,-2,-2
1482546947494651,-1,1,13,15,5,0,0,0
1482546947501658,4,-5,-23,-16,-10,-3,-1,-1
1482546947501658,-10,18,8,-2,-6,-2,0,-1
1482546947507667,2,4,-12,-12,-1,-2,-4,-4
1482546947507667,-9,-12,-2,1,-1,-3,-1,-3
1482546947523661,-2,-10,-3,-2,1,-1,0,0
1482546947523661,0,0,-8,-5,-2,-3,-1,0
1482546947530669,0,-2,5,-9,3,2,-1,-1
1482546947530669,5,7,5,-4,0,0,-1,-1
1482546947539703,-4,-1,-9,14,1,0,-1,-1
1482546947539703,-8,-6,-3,-5,-5,-5,-2,-3
1482546947561836,1,4,6,8,1,-3,-1,-1
1482546947561836,3,-3,-13,-20,-7,-1,-2,-1
1482546947562832,-1,1,7,19,2,-1,1,1
1482546947562832,0,-3,21,5,-6,-2,-3,-1
1482546947575883,1,9,-10,-3,5,4,1,-1
1482546947575883,1,4,-10,4,-6,-6,-2,-1
1482546947583871,-7,-2,-2,-5,8,4,2,0
1482546947583871,0,1,-15,-17,-11,-2,-2,0
1482546947598897,-1,-4,9,1,1,-2,0,-2
1482546947598897,4,6,12,-6,-5,-2,-1,-1
1482546947600858,-1,0,-38,13,-12,-5,-3,0
1482546947600858,3,-1,27,9,8,2,0,-1
1482546947621921,-10,-19,-28,-33,-6,1,0,-2
1482546947621921,-2,3,3,5,1,-2,-1,0
1482546947622861,2,-2,4,-14,-3,-1,-1,-1
1482546947622861,3,1,-1,5,1,-1,1,-2
1482546947635480,2,-1,1,4,-3,0,0,2
1482546947635480,-3,1,0,-3,3,3,1,-1
1482546947644526,0,2,8,1,2,1,-2,-1
1482546947644526,-2,-6,-12,-1,-4,-3,-1,0
1482546947659130,-3,0,7,3,-2,-1,0,-2
1482546947659130,1,-6,-7,-7,0,-2,-1,0
1482546947661123,-1,0,7,-1,1,-2,-2,-3
1482546947661123,-2,-3,-8,11,4,1,0,-1
1482546947681146,0,-5,-4,-13,-9,-1,-2,-1
1482546947681146,3,6,1,8,3,0,0,1
1482546947683133,-12,8,24,8,7,5,2,-1
1482546947683133,-4,-4,-23,-13,-6,-5,-2,-1
1482546947704163,3,-10,9,17,0,-3,-2,0
1482546947704163,-4,6,-1,-1,4,3,-1,-1
1482546947705165,-4,-3,-4,3,-6,-2,-1,-2
1482546947705165,0,-2,-3,-24,-10,-4,0,-1
1482546947718200,-1,-3,22,53,20,7,3,2
1482546947718200,1,-4,2,-40,-11,-4,-2,-1
1482546947725261,9,10,-24,-2,4,1,1,2
1482546947725261,-10,-8,51,23,-8,-7,-3,-5
1482546947741795,0,3,-15,11,-2,-4,-1,0
1482546947741795,-2,0,-6,12,0,-2,0,0
1482546947743292,0,0,-11,-12,-3,-2,-3,0
1482546947743292,0,-2,-22,-17,4,2,0,0
1482546947755445,0,0,6,-20,-3,-3,-2,0
1482546947755445,-5,-15,-5,14,3,3,0,-5
1482546947764449,-2,-6,6,-11,-5,-3,-1,0
1482546947764449,2,2,-8,13,-5,-4,-4,-2
1482546947778464,-5,-2,-10,-24,-2,1,0,0
1482546947778464,5,3,12,6,0,-3,-1,3
1482546947786464,-1,-3,6,6,5,1,-1,-3
1482546947786464,-4,-1,-8,31,-3,0,0,-1
1482546947801614,0,3,-4,-2,4,-4,-3,-1
1482546947801614,1,2,-15,-27,-13,-1,1,2
1482546947803550,-2,3,12,-17,3,-1,0,-1
1482546947803550,-1,5,23,24,1,0,0,-2
1482546947824565,-1,2,-9,-10,-8,-3,-1,-2
1482546947824565,-4,-6,-9,7,18,3,1,-2
1482546947825590,-1,-8,-9,5,1,0,1,0
1482546947825590,3,-2,-2,-1,2,0,0,1
1482546947838662,3,4,-16,-20,-10,-3,-2,-1
1482546947838662,-4,-7,8,18,12,3,1,0
1482546947845277,2,2,16,-22,-17,-6,-2,0
1482546947845277,-1,-4,-11,-12,19,5,2,1
1482546947861509,-2,-2,7,12,-8,0,0,0
1482546947861509,-2,0,2,23,-3,-4,-5,-2
1482546947863446,-2,-5,-16,7,5,1,-1,0
1482546947863446,0,2,-7,-9,-5,-1,-1,0
1482546947884526,-2,6,11,-14,-3,-2,-2,-2
1482546947884526,0,5,2,-15,-7,-3,-1,0
1482546947885466,-3,-5,8,12,-2,-2,-2,-1
1482546947885466,3,-6,-3,-13,0,1,3,0
1482546947898533,0,-14,-27,-9,0,3,1,-2
1482546947898533,1,0,3,11,0,1,0,-1
1482546947905538,-3,-3,13,17,-3,-2,0,-2
1482546947905538,-1,-5,-21,-57,-3,-3,-2,1
1482546947921549,-2,0,18,37,2,-2,-1,-1
1482546947921549,-1,2,-7,3,-5,-6,-2,-2
1482546947923510,0,2,-2,-3,11,3,0,-1
1482546947923510,0,5,1,-5,-4,6,5,2
1482546947944585,-3,-1,5,8,-3,2,2,1
1482546947944585,-2,-2,-3,-12,1,2,-2,0
1482546947946088,2,2,-24,-5,-5,-2,-1,-1
1482546947946088,-3,-2,34,-10,-4,-3,-5,-3
1482546947958737,0,-1,1,13,-2,-4,-2,0
1482546947958737,2,1,9,-2,-1,-2,-1,-1
1482546947965768,-3,-10,-32,11,-6,-4,-1,-3
1482546947965768,1,1,-11,9,-3,-5,-3,-1
1482546947981817,1,5,20,-9,-2,-6,-3,0
1482546947981817,-3,-10,-38,-7,2,7,-1,-3
1482546947982779,0,3,32,12,7,8,3,2
1482546947982779,0,-1,-10,8,0,1,-1,0
1482546948011798,-5,-4,-6,-11,5,2,3,-2
1482546948011798,2,3,3,3,-1,-2,0,-1
1482546948012780,-1,2,12,-11,-3,-4,-3,-1
1482546948012780,-1,-3,-25,6,-5,-3,0,-3
1482546948017778,2,8,8,-15,-2,-1,-1,-1
1482546948017778,-1,-4,0,-1,-3,-5,1,0
1482546948026785,0,2,1,-14,-2,1,-1,-1
1482546948026785,-1,-3,6,7,-2,-4,-4,-3
1482546948041859,1,-3,-8,12,4,2,-1,0
1482546948041859,-4,-3,-2,-39,-5,-2,0,-2
1482546948043344,1,3,-5,-2,6,0,-1,-1
1482546948043344,-1,-3,-21,-6,1,-1,-1,0
1482546948064388,-2,-13,-18,4,1,1,0,-3
1482546948064388,-3,0,29,-10,-11,-8,-5,-4
1482546948065384,-5,-2,-10,-10,-2,-2,-3,-1
1482546948065384,1,4,3,10,8,3,2,1
1482546948077399,2,0,-5,-2,2,6,2,-1
1482546948077399,-1,1,-3,5,2,-3,-1,2
1482546948086455,-2,-5,0,-3,-7,-4,-2,-2
1482546948086455,-1,2,-6,2,-1,-3,-1,-1
1482546948101621,13,6,-19,-29,-2,1,2,1
1482546948101621,-5,-4,40,38,2,1,0,-1
1482546948103621,-2,-4,-14,-42,-5,-3,-1,1
1482546948103621,-2,4,9,5,-2,1,-2,1
1482546948124592,-4,-5,-17,1,3,-3,-3,-1
1482546948124592,2,0,-16,9,-9,-1,-3,-1
1482546948125592,-3,-1,-4,4,2,0,0,-2
1482546948125592,-1,1,11,-18,2,0,-1,-2
1482546948138207,-2,4,101,-1,-2,0,-1,0
1482546948138207,-2,-11,-68,-12,-2,-4,-2,-4
1482546948146713,-3,0,22,5,-1,-1,-1,-1
1482546948146713,-1,1,18,-7,-2,-1,0,-2
1482546948161236,-1,-1,-31,23,1,0,-1,0
1482546948161236,4,6,3,-9,9,5,1,1
1482546948163226,1,3,16,24,-11,-6,-3,-1
1482546948163226,0,-2,-23,-10,0,1,3,-1
1482546948184253,-7,-6,6,2,-2,-2,-3,-8
1482546948184253,10,4,-7,-8,5,5,2,8
1482546948185253,-14,0,-25,-6,0,0,2,-4
1482546948185253,-1,-3,43,3,-2,-1,0,-3
1482546948197250,2,-1,-15,-4,-3,-4,-2,2
1482546948197250,-20,-9,-3,-5,-10,-2,9,-8
1482546948206256,8,2,3,22,4,-4,-16,0
1482546948206256,-9,-3,-8,25,-7,-4,-31,-30
1482546948221267,-1,-6,-9,-18,-3,-4,5,38
1482546948221267,7,6,26,-29,2,-1,-10,-41
1482546948223268,5,1,5,8,2,6,7,2
1482546948223268,-2,-8,-54,-13,0,0,20,9
1482546948244284,8,4,31,1,0,2,-8,-16
1482546948244284,-11,1,-27,23,1,-2,0,4
1482546948245787,0,-12,-16,-39,-6,-5,4,11
1482546948245787,3,1,-1,-8,-2,-1,-1,-3
1482546948257120,-7,-7,14,4,1,1,4,1
1482546948257120,4,7,26,2,-1,-1,2,10
1482546948267192,4,7,-13,3,3,2,1,-8
1482546948267192,0,0,6,-10,0,0,-2,12
1482546948281203,-10,3,-15,-17,-4,-4,-4,-3
1482546948281203,-4,-25,-5,6,1,-1,-3,-5
1482546948283198,-18,-8,18,7,0,0,1,2
1482546948283198,3,-6,-30,0,-3,0,0,-14
1482546948304218,3,-2,3,1,0,-1,1,-9
1482546948304218,8,5,-22,-1,-1,-1,1,30
1482546948305219,3,0,30,0,-4,-5,1,21
1482546948305219,-1,-1,13,9,4,1,-1,-49
1482546948318240,-6,9,12,-1,1,1,3,-10
1482546948318240,-5,-12,-25,7,0,-1,-5,-1
1482546948326244,-5,-26,-74,-26,-6,-2,-6,-7
1482546948326244,0,7,31,30,-3,-3,-2,15
1482546948341817,-1,-3,-44,-12,-3,-1,-5,-6
1482546948341817,0,9,0,9,-2,-2,0,1
1482546948343313,5,12,27,9,2,0,2,-1
1482546948343313,0,-6,-7,-3,5,2,2,11
1482546948363991,-2,-5,-4,1,-3,-3,-1,-3
1482546948363991,6,12,28,-3,0,3,3,6
1482546948365956,-4,4,-19,6,-6,-4,-3,-10
1482546948365956,3,-2,23,7,-1,3,1,10
1482546948378151,-2,2,-1,-7,-7,-1,0,2
1482546948378151,4,-6,-3,2,1,-3,-5,-5
1482546948387087,-1,-3,1,-2,0,3,2,-2
1482546948387087,1,9,36,0,-3,-6,-3,6
1482546948401301,6,-11,-15,-3,-4,-2,0,3
1482546948401301,-9,9,-12,1,-1,-2,-3,-4
1482546948403264,-17,-13,10,6,4,1,-1,-6
1482546948403264,-8,-7,-15,-2,0,-4,-2,5
1482546948424321,-5,2,1,10,1,0,-2,-3
1482546948424321,-4,8,40,-3,-7,0,1,0
1482546948425294,12,9,-35,11,18,5,-2,-1
1482546948425294,1,3,-17,-16,-6,2,2,7
1482546948437849,-2,-1,-3,0,0,-3,-1,-3
1482546948437849,7,-1,-2,2,-3,-2,-2,-2
1482546948446840,1,5,19,-1,-4,-1,1,-1
1482546948446840,2,0,0,-7,0,-1,-2,7
1482546948469012,2,5,-7,11,2,3,-1,-2
1482546948469012,-3,-4,15,-4,-3,-1,1,1
1482546948470951,1,-2,11,15,-6,-1,-1,-1
1482546948470951,-3,-5,-25,-51,-1,-2,-4,1
1482546948482961,6,0,10,-4,1,-2,0,2
1482546948482961,-8,-16,-10,1,-4,-4,-5,-9
1482546948490025,-2,-5,2,36,7,-1,1,-3
1482546948490025,4,4,24,-16,1,2,1,2
1482546948507027,0,7,-24,3,-2,0,0,0
1482546948507027,1,-6,-2,-12,3,0,0,-1
1482546948507977,1,-4,1,3,-6,-3,-3,-3
1482546948507977,-2,0,-6,17,-1,-2,0,-1
1482546948529053,-5,-2,12,-8,2,-2,-4,-2
1482546948529053,0,7,11,32,0,2,1,1
1482546948531013,5,5,-14,-33,0,0,2,0
1482546948531013,2,10,31,4,2,1,0,1
1482546948543585,-6,-18,-5,1,-6,-4,-3,-2
1482546948543585,-2,2,-28,17,5,1,0,-2
1482546948550356,1,3,20,-4,-4,-4,-1,1
1482546948550356,-1,10,17,-2,-3,-1,-2,-2
1482546948566368,0,-12,-8,15,5,2,2,0
1482546948566368,-2,-5,-11,-24,5,-2,-1,0
1482546948568355,4,3,-15,7,-3,1,2,1
1482546948568355,-5,-7,-6,-15,-6,-3,-2,-1
1482546948589383,-1,2,6,-13,-1,-3,-3,-1
1482546948589383,2,-3,-13,-5,-1,-2,1,1
1482546948590381,0,-3,5,1,0,-1,-1,-2
1482546948590381,-1,0,-6,24,3,1,1,0
1482546948602394,1,6,5,-5,-2,5,0,-6
1482546948602394,0,4,6,-8,2,3,3,0
1482546948611396,-2,-4,7,-7,-9,-5,-5,-3
1482546948611396,0,-7,-5,9,-5,-2,-1,-1
1482546948626414,1,2,-14,6,0,-3,-2,0
1482546948626414,1,0,0,-37,-9,-2,-2,0
1482546948628398,0,2,18,0,1,-3,0,-1
1482546948628398,-5,-8,-21,6,2,6,4,2
1482546948649443,-2,-1,-8,-4,1,-1,1,1
1482546948649443,-1,4,4,5,0,-1,-1,-2
1482546948650548,1,5,15,-3,-3,2,0,2
1482546948650548,-1,-10,-2,2,-2,-5,-3,-2
1482546948662598,-1,-1,-19,-7,2,-4,-3,-4
1482546948662598,-9,-5,8,9,-3,-1,-2,-4
1482546948671542,0,0,-16,-23,-3,-3,1,-1
1482546948671542,1,1,11,3,3,1,2,0
1482546948686617,1,2,-2,2,-1,4,3,2
1482546948686617,3,1,-1,12,-1,-3,0,3
1482546948688557,-3,-3,-8,-7,-2,-2,-2,-2
1482546948688557,-1,1,-4,1,-3,-1,-1,-1
1482546948708592,-1,1,7,-4,-1,0,-1,-1
1482546948708592,-1,0,-6,-8,-1,0,-1,-1
1482546948710593,5,7,29,11,1,2,2,2
1482546948710593,-12,-39,-53,-12,-7,-7,-4,-5
1482546948722591,-2,-1,-14,-5,-2,-2,-1,0
1482546948722591,0,2,4,-4,-1,-1,-1,-1
1482546948731608,-1,-3,-7,-8,-1,0,-1,-2
1482546948731608,2,7,-2,-1,1,-2,-2,0
1482546948746611,-1,-1,10,17,-7,-6,-5,0
1482546948746611,1,-1,10,3,15,13,7,4
1482546948748114,-1,-1,0,27,5,4,1,-2
1482546948748114,2,6,-4,-9,3,0,-2,0
1482546948769131,-2,-2,1,-10,-6,-4,-2,-2
1482546948769131,2,3,11,3,-11,-9,-8,-4
1482546948770131,-2,-5,-19,7,-2,-3,-3,0
1482546948770131,2,7,5,9,1,2,4,-1
1482546948782192,-2,5,5,-8,-2,-2,-2,-1
1482546948782192,-1,-13,-4,2,0,0,0,-2
1482546948792162,-4,-8,0,-12,-3,-1,-3,-3
1482546948792162,-2,-1,8,3,-6,-4,-2,-1
1482546948806171,1,2,12,-7,0,0,1,-1
1482546948806171,0,2,-18,-9,-4,-5,-1,1
1482546948808172,-3,-3,-20,-2,-1,-1,-3,-2
1482546948808172,0,3,3,4,3,0,-1,0
1482546948829233,-1,-1,16,10,2,4,2,-1
1482546948829233,0,-1,8,3,-4,1,0,-1
1482546948830194,2,3,1,-4,-6,-2,0,-2
1482546948830194,0,2,-2,10,-1,-2,-2,-1
1482546948843260,-1,-3,-20,-34,-2,5,2,2
1482546948843260,2,10,29,1,-4,-2,-2,-2
1482546948851885,-3,-10,-17,-9,-3,0,-1,-2
1482546948851885,-1,-2,-5,6,0,-2,-1,-1
1482546948866913,0,15,42,-7,-11,-9,-5,-3
1482546948866913,-3,-13,-36,5,21,17,6,3
1482546948867909,1,3,12,1,9,2,1,1
1482546948867909,-1,4,-17,-5,-2,3,1,2
1482546948888950,-9,-11,14,-26,-13,-9,-5,-6
1482546948888950,-1,-4,-11,-12,-8,-7,-4,-1
1482546948890913,-1,1,-1,-11,-2,1,1,-1
1482546948890913,-1,-5,18,26,-3,-3,-2,-3
1482546948902984,2,4,-21,4,6,2,2,0
1482546948902984,-2,0,8,41,3,-1,0,0
1482546948911934,-2,-3,-15,-14,2,-4,-2,-2
1482546948911934,-1,5,1,-10,-2,-1,1,0
1482546948926995,-1,-5,-13,1,3,4,2,0
1482546948926995,0,0,-6,-1,-3,-5,-3,-1
1482546948927945,1,3,22,7,4,-2,-2,0
1482546948927945,-1,-1,-11,-15,-9,3,1,1
1482546948949533,-1,5,33,29,0,-4,-1,-1
1482546948949533,-4,-25,-27,-9,-5,-4,-2,0
1482546948950022,0,2,5,6,0,3,0,-2
1482546948950022,-3,-4,5,-17,-1,-2,-2,1
1482546948963213,-1,-5,-16,-12,-1,3,4,1
1482546948963213,1,4,9,-6,-7,-4,0,-1
1482546948972215,1,4,21,0,-7,-4,-2,-2
1482546948972215,0,-3,-31,8,9,1,1,-1
1482546948986230,1,-2,3,-14,-9,0,0,0
1482546948986230,-1,6,26,12,2,-3,-2,-3
1482546948988216,-1,0,5,6,0,0,-2,0
1482546948988216,0,-5,-3,-8,-2,-1,0,-1
1482546949009293,0,3,12,6,8,0,-1,-1
1482546949009293,-3,-8,-42,-15,0,1,0,-2
1482546949010266,-2,1,-8,-1,-6,-4,-2,-2
1482546949010266,2,1,3,2,6,1,-2,0
1482546949022259,2,-1,-9,6,1,-1,-2,-1
1482546949022259,1,12,25,-4,-3,1,-2,-1
1482546949031306,-3,-5,6,5,0,-1,-1,0
1482546949031306,5,8,6,-4,-4,-3,-1,-2
1482546949046836,-10,-14,-47,2,1,-2,-2,-2
1482546949046836,-1,5,20,-2,7,8,4,-1
1482546949048326,-4,-1,-22,0,-1,1,2,0
1482546949048326,-6,-9,0,-3,-2,-4,-2,0
1482546949070478,10,2,16,3,-3,-1,0,0
1482546949070478,-17,-4,-5,-2,0,-5,-3,-4
1482546949072470,-7,3,14,-5,-5,-2,-1,-1
1482546949072470,12,-1,-11,-2,-1,-1,-1,-1
1482546949082484,-1,3,3,8,4,0,0,0
1482546949082484,5,5,2,-8,-4,-1,0,1
1482546949091478,-11,-11,-8,-2,-1,1,-2,-1
1482546949091478,-8,0,6,3,3,0,1,-1
1482546949106605,5,1,-7,1,0,0,1,0
1482546949106605,2,1,27,0,-1,-2,-1,0
1482546949108566,0,1,-35,-6,-3,-3,-1,-1
1482546949108566,-3,0,6,-1,-4,-2,-1,-3
1482546949129590,-2,-8,-5,-2,3,3,1,-2
1482546949129590,5,6,6,0,-1,1,2,0
1482546949130561,8,3,12,-2,-4,-2,-2,0
1482546949130561,4,3,-2,-1,-2,-1,0,1
1482546949143135,-5,-4,-8,1,-7,-6,-3,-1
1482546949143135,-2,5,0,7,6,-2,-3,-2
1482546949157742,-5,-2,-5,-19,-1,3,1,1
1482546949157742,-5,-5,-11,-6,9,6,1,1
1482546949165852,2,3,0,2,-1,0,-1,1
1482546949165852,-1,-6,-20,3,-4,-4,-1,0
1482546949172856,15,9,3,-6,-4,-4,-2,0
1482546949172856,-26,-7,9,6,3,0,-1,-3
1482546949188840,-5,-3,-4,0,2,-1,0,-3
1482546949188840,-6,-4,-6,-5,-2,1,0,-3
1482546949190842,1,-4,2,4,-5,-1,0,-1
1482546949190842,14,7,15,0,-7,-4,-2,0
1482546949202877,2,4,-13,2,3,0,0,0
1482546949202877,-29,2,-3,-6,-9,-7,-4,0
1482546949211857,9,-10,2,1,3,-1,-1,-1
1482546949211857,0,6,3,7,5,6,2,2
1482546949225857,-8,-8,5,1,2,1,0,-5
1482546949225857,7,-7,-3,3,1,-1,0,-3
1482546949232860,-4,5,-7,-8,-4,-3,-2,0
1482546949232860,12,6,-1,-5,-8,-3,-2,1
1482546949249393,-5,0,-2,-1,2,0,-3,1
1482546949249393,-3,-6,4,7,1,0,0,2
1482546949250881,-3,-6,3,5,2,1,1,-1
1482546949250881,3,-1,-5,-9,6,2,-2,-2
1482546949271303,6,6,0,-7,-8,-1,0,0
1482546949271303,6,-1,1,-6,-2,-2,-3,-1
1482546949273248,0,-3,-5,3,-7,-3,-2,0
1482546949273248,4,10,6,16,8,1,0,-1
1482546949294281,-10,-3,-4,-20,-3,0,1,-1
1482546949294281,8,-5,-4,0,6,5,2,0
1482546949295292,4,2,0,11,4,1,0,0
1482546949295292,-4,-1,0,-7,-10,-7,-2,-3
1482546949309331,-6,-11,1,10,2,0,-2,-3
1482546949309331,-5,3,-8,-7,-8,-3,-3,-5
1482546949310304,-18,-14,9,-3,2,2,0,-4
1482546949310304,-1,7,6,2,-4,-5,-4,-6
1482546949331343,8,-11,-26,1,2,0,3,-1
1482546949331343,3,1,-5,-5,-2,0,0,0
1482546949333290,3,4,1,3,1,-1,0,1
1482546949333290,-2,-1,4,1,-2,0,-2,0
1482546949346317,2,5,7,3,1,-2,-2,1
1482546949346317,6,3,-2,-6,-1,-2,-1,0
1482546949359934,-1,1,0,1,-2,-5,-2,0
1482546949359934,-5,-3,-6,0,-1,2,2,-1
1482546949368939,5,3,12,1,3,2,1,1
1482546949368939,-1,-13,-26,1,-1,-1,-1,0
1482546949370939,-2,-1,15,-3,0,-4,-3,-4
1482546949370939,-4,-10,-20,-8,-5,-3,1,3
1482546949391993,11,3,-2,2,-1,-2,-4,-3
1482546949391993,9,8,15,1,1,2,4,4
1482546949392940,-32,12,7,5,1,2,-1,-1
1482546949392940,-1,-30,-45,-7,-4,-5,-2,-8
1482546949406005,32,-4,39,2,-3,-1,-2,13
1482546949406005,-32,-21,-32,-8,-5,-4,-6,-25
1482546949412981,17,16,-6,-3,1,1,2,0
1482546949412981,-10,3,5,2,0,-1,-1,1
1482546949429024,0,3,5,2,1,-1,1,-5
1482546949429024,17,-4,9,0,0,0,-1,3
1482546949430994,2,0,-4,3,2,2,2,3
1482546949430994,13,10,-8,5,-1,1,3,1
1482546949451061,-19,-26,-32,-9,-5,-6,-6,-6
1482546949451061,3,28,59,-1,-3,-2,-9,7
1482546949453123,-15,-14,-13,-1,1,-1,6,-4
1482546949453123,13,-2,30,2,0,1,0,4
1482546949466153,10,37,-6,7,0,0,1,-4
1482546949466153,5,-22,-38,-3,-7,-8,-12,1
1482546949473131,-12,1,3,-6,0,-4,-29,-18
1482546949473131,-9,-17,-7,0,-5,3,17,-2
1482546949489157,5,-5,12,2,6,3,1,-14
1482546949489157,15,17,15,-1,-4,-3,47,63
1482546949490158,-12,7,-3,1,-3,-4,7,-6
1482546949490158,8,-15,11,4,-2,-4,-19,-8
1482546949511196,-15,0,14,-3,-2,1,12,-3
1482546949511196,10,3,-6,-1,2,0,-50,-36
1482546949513159,26,-20,-11,0,-1,-1,17,20
1482546949513159,-14,19,2,-3,2,4,43,29
1482546949525207,-16,17,8,-1,-2,-2,-20,-8
1482546949525207,-17,-9,2,-4,3,2,14,-7
1482546949534173,-3,-2,2,-3,-4,-4,-36,-53
1482546949534173,3,6,8,-1,-1,-1,34,40
1482546949549277,-5,-8,-12,-1,-3,-3,8,5
1482546949549277,-5,8,-15,2,-1,-1,5,-3
1482546949550737,34,0,9,4,3,-6,-93,2
1482546949550737,-6,9,86,-2,3,16,75,44
1482546949571470,-2,-8,-24,-2,0,-2,-25,-1
1482546949571470,-25,3,-12,0,1,-2,-46,-40
1482546949573471,5,5,13,3,-2,4,71,34
1482546949573471,-6,-4,-5,-3,-1,-9,-47,-25
1482546949585520,-7,-14,-3,9,2,-1,8,19
1482546949585520,13,9,21,-10,-5,5,70,-2
1482546949594463,11,19,-8,1,6,2,-85,-28
1482546949594463,-28,-18,-27,-16,-12,-11,-30,-58
1482546949609522,-11,-11,-18,2,5,6,101,35
1482546949609522,12,7,67,45,18,2,-10,-5
1482546949610479,0,8,49,-29,-15,-1,4,-6
1482546949610479,-3,-36,-103,-71,-26,-12,-26,-16
1482546949631553,-4,-14,15,6,-2,-3,-54,-23
1482546949631553,5,8,0,8,12,0,2,16
1482546949633513,-3,-8,15,7,4,1,34,15
1482546949633513,3,6,27,43,6,-2,-35,-15
1482546949645582,1,11,7,-14,4,0,15,7
1482546949645582,-6,-17,-99,-1,-9,-3,-10,4
1482546949654251,-8,-11,-10,-39,-8,-1,31,11
1482546949654251,7,7,-6,9,1,-3,-33,-13
1482546949670271,0,3,2,3,-5,-1,-4,-9
1482546949670271,5,16,60,24,9,3,13,-19
1482546949672264,-8,-38,-98,-3,-3,-2,30,38
1482546949672264,7,11,22,8,3,1,-5,-9
1482546949691295,2,21,-3,2,-1,-4,-5,4
1482546949691295,-4,-8,4,-20,-6,4,23,32
1482546949693289,20,4,6,7,-2,1,9,23
1482546949693289,-13,13,12,9,5,3,42,22
1482546949705299,0,-1,9,8,-1,-1,-9,-9
1482546949705299,-3,-17,-13,-30,-8,-3,-9,-6
1482546949714292,-7,8,6,6,-2,-5,-13,-15
1482546949714292,11,11,46,28,14,4,5,9
1482546949729342,5,-4,-32,27,8,3,-10,-15
1482546949729342,0,20,7,-44,-18,0,3,8
1482546949730326,-12,-20,-39,13,1,-5,-13,-17
1482546949730326,10,6,30,-5,2,4,-16,-13
1482546949751355,-4,2,-48,-45,-18,-3,13,6
1482546949751355,1,-6,-34,-7,5,1,-19,2
1482546949753463,-4,1,16,15,9,1,21,-2
1482546949753463,1,0,-33,7,-6,-7,-11,-8
1482546949765485,4,5,71,12,1,-1,-13,1
1482546949765485,-1,-15,-49,12,-1,-2,-1,2
1482546949774478,-1,17,28,-9,-4,-1,6,-1
1482546949774478,3,10,52,33,7,2,3,2
1482546949788501,-6,-18,-16,-27,-8,-4,-16,-10
1482546949788501,0,-9,-32,-12,-4,-5,-20,-1
1482546949796494,-13,-3,-11,13,4,7,37,8
1482546949796494,2,21,55,4,0,1,-27,0
1482546949811518,3,-5,-35,1,-3,0,38,16
1482546949811518,-4,-2,21,-3,-2,-2,15,-3
1482546949813514,30,1,-11,7,0,1,12,10
1482546949813514,-25,-14,-13,-8,-2,-2,4,-2
1482546949825530,-4,1,-13,-11,-6,-3,-10,-2
1482546949825530,-2,11,101,5,-1,-4,-15,-10
1482546949834530,-4,-12,-21,-1,-2,-3,-8,-9
1482546949834530,5,1,-27,-13,-6,0,-1,-5
1482546949849560,-1,-1,17,1,-5,-8,-20,-13
1482546949849560,4,7,-9,8,12,8,0,3
1482546949851063,-6,-2,19,22,0,5,-9,-6
1482546949851063,2,-12,-58,-39,2,-1,-1,2
1482546949871704,1,14,44,61,20,5,-7,-1
1482546949871704,-5,-22,-100,-88,-24,-7,2,0
1482546949873692,-6,3,43,-8,-4,-5,-2,-4
1482546949873692,-1,-3,-27,4,-3,-3,-3,-3
1482546949885711,9,3,11,7,4,2,1,2
1482546949885711,0,8,59,69,13,4,-2,-3
1482546949894717,-4,0,-10,-9,9,3,-8,-8
1482546949894717,-2,-12,-58,-5,-9,-11,-29,-9
1482546949908735,2,4,23,-14,-6,0,14,2
1482546949908735,-3,-19,-34,15,7,1,-2,-1
1482546949910728,-6,-3,-8,-16,-11,-3,-4,-7
1482546949910728,5,2,38,5,3,-3,1,2
1482546949931747,-3,2,-16,-12,-8,-2,-4,-5
1482546949931747,-2,-2,-7,-7,1,-3,-4,-2
1482546949933746,-3,2,-4,11,8,3,-3,-1
1482546949933746,4,2,10,10,-12,-2,7,1
1482546949945277,-13,-19,-52,-51,-7,-7,-13,-6
1482546949945277,-2,15,59,21,-4,1,7,2
1482546949953889,-5,-12,-40,-4,13,5,-2,-1
1482546949953889,-3,1,2,-16,-1,3,5,3
1482546949968907,10,6,-3,-6,-6,-4,-1,-3
1482546949968907,-5,-4,13,2,-10,-7,-7,-5
1482546949970896,-8,4,5,4,-5,-7,-4,-2
1482546949970896,4,-8,-7,-2,2,1,5,2
1482546949991916,-5,-16,-5,-2,3,4,-2,0
1482546949991916,5,6,-8,4,2,0,-1,0
1482546949992907,2,3,1,-1,-4,-1,-1,-1
1482546949992907,-3,-3,-8,-3,0,-2,4,-1
1482546950004920,4,5,11,10,-2,-4,-6,-2
1482546950004920,0,0,4,-4,-2,-1,1,-11
1482546950013950,15,11,2,-8,-3,-1,-2,10
1482546950013950,-4,-11,3,-8,-1,-1,-11,22
1482546950028998,7,-1,6,3,3,2,16,-16
1482546950028998,-11,0,-1,10,-2,-2,-11,-24
1482546950030940,19,7,21,-1,-5,-3,5,15
1482546950030940,6,7,-13,1,3,5,1,22
1482546950059154,22,0,5,1,3,3,-8,13
1482546950059154,5,-4,-10,-7,0,-2,4,-6
1482546950061148,7,6,4,2,-2,-2,-6,-4
1482546950061148,-17,-1,22,1,-2,-2,2,3
1482546950075149,-16,-11,-17,-3,-1,-1,-5,19
1482546950075149,5,4,8,-1,-2,-3,-1,10
1482546950077161,-6,-3,6,-5,-2,-2,-5,-13
1482546950077161,-1,3,-6,0,1,-1,-5,-10
1482546950088305,-7,6,7,5,2,5,15,-12
1482546950088305,-2,-6,-15,-2,-1,-1,-1,24
1482546950095310,-5,1,2,3,-1,-3,-18,-5
1482546950095310,1,-10,2,-4,-2,-2,23,-17
1482546950111260,-4,1,-17,-1,-3,-3,-8,4
1482546950111260,6,1,8,-2,-2,-1,-9,-9
1482546950113264,-13,-13,1,-3,-4,-3,15,7
1482546950113264,17,0,-16,3,10,4,-16,-18
1482546950125332,-43,-6,4,-1,-2,-5,-4,-3
1482546950125332,-6,0,1,-6,-1,-2,0,0
1482546950134274,-3,-1,4,9,-7,-5,-13,-20
1482546950134274,-6,-4,-5,20,-15,-6,12,2
1482546950148867,19,15,29,-44,5,4,5,2
1482546950148867,-1,-2,-20,3,6,2,-9,0
1482546950155456,-8,2,4,9,22,13,-13,0
1482546950155456,7,5,13,20,-15,-6,35,20
1482546950171527,2,9,8,9,-21,-13,-12,-9
1482546950171527,-1,-1,-34,-40,12,3,4,1
1482546950173464,2,-9,-18,-10,-11,-2,3,-3
1482546950173464,0,3,43,19,7,7,-5,2
1482546950194508,3,5,-15,-47,0,1,1,-5
1482546950194508,-5,-7,17,13,-14,-6,-7,6
1482546950195480,-3,13,-19,-10,-8,-3,24,6
1482546950195480,-5,-8,-18,6,7,-1,-38,-26
1482546950208555,-1,-2,13,17,3,3,31,21
1482546950208555,2,-10,4,40,-4,-6,-28,-25
1482546950215567,-1,-3,-37,-53,1,2,19,4
1482546950215567,-4,4,27,-9,-6,-8,-29,-13
1482546950231522,1,-19,-11,14,16,4,-6,-8
1482546950231522,-2,4,15,10,-3,0,-1,1
1482546950233506,-4,-6,4,7,2,-2,-13,-6
1482546950233506,-5,1,-7,-37,-1,2,11,6
1482546950253708,-1,-5,-23,25,-1,-5,-23,-13
1482546950253708,2,3,-13,-5,0,0,22,18
1482546950255704,-1,3,-4,1,-5,3,1,2
1482546950255704,-1,6,-33,-20,4,-1,-4,-6
1482546950268717,-4,-10,53,24,-12,-7,-11,-2
1482546950268717,-13,3,8,-4,-4,-2,12,-6
1482546950275718,30,2,8,-4,3,0,7,7
1482546950275718,-12,-16,-19,6,4,4,2,3
1482546950291735,0,1,14,20,0,0,-24,-9
1482546950291735,-6,-15,-16,-48,-4,-3,1,-12
1482546950293732,2,6,-12,22,5,0,-30,-20
1482546950293732,-2,-3,20,-21,-6,1,33,35
1482546950313749,17,7,-3,-2,-4,-1,9,-2
1482546950313749,1,0,-40,-23,3,4,6,13
1482546950315736,-11,-5,76,-1,1,8,21,5
1482546950315736,-2,-7,13,47,1,-4,-22,-19
1482546950328761,-5,-5,21,41,6,2,29,9
1482546950328761,8,5,-16,-19,-12,-12,-21,-9
1482546950334764,-4,-6,-36,-6,8,1,16,12
1482546950334764,8,5,-13,-34,-28,-4,5,-2
1482546950352861,0,5,20,27,6,-1,-6,1
1482546950352861,0,3,-29,-54,7,6,2,-6
1482546950354992,-8,-1,32,57,-10,-13,-15,-4
1482546950354992,-5,-9,-7,-32,0,0,6,-4
1482546950374140,-1,3,-13,-13,-18,-2,-4,0
1482546950374140,2,4,19,22,-6,-5,-3,2
1482546950376097,-6,-4,-5,9,6,-2,1,-2
1482546950376097,4,2,-7,-27,5,-2,-4,-6
1482546950388105,-12,-5,-29,-26,3,2,-7,-4
1482546950388105,2,0,19,28,-1,0,8,7
1482546950395150,-2,-4,5,-14,-10,-7,-4,-3
1482546950395150,-1,1,-4,15,1,-6,-6,-8
1482546950412124,5,1,-21,-11,-2,6,0,0
1482546950412124,7,4,18,19,18,8,10,7
1482546950413123,-8,-9,-4,-34,-14,-3,-2,-3
1482546950413123,-1,-3,-14,6,10,-2,-2,-1
1482546950434178,0,2,-11,-43,-17,-12,-6,-4
1482546950434178,-9,-7,17,20,11,3,0,0
1482546950436139,2,0,-1,18,-5,-3,-5,-2
1482546950436139,7,4,-12,14,6,4,3,1
1482546950448671,5,-1,-4,-21,-16,0,0,0
1482546950448671,-14,2,11,17,1,3,1,-2
1482546950455312,0,-3,0,-5,9,-4,-3,-2
1482546950455312,4,-8,-15,12,10,2,-1,-2
1482546950473323,-14,0,5,4,9,1,-3,-3
1482546950473323,5,-2,-1,-24,-13,-6,-2,-2
1482546950474320,-4,-4,1,7,-11,1,-2,-2
1482546950474320,2,6,-13,-17,-5,-4,-3,0
1482546950494337,8,0,9,14,8,1,-2,2
1482546950494337,-2,1,5,38,3,2,0,0
1482546950495337,-2,4,-5,-52,-9,-2,1,-2
1482546950495337,1,-3,19,3,-1,-2,0,-3
1482546950507346,-6,-11,-34,-6,3,-2,-2,-1
1482546950507346,-5,6,-17,-1,-6,-3,1,1
1482546950516339,2,-8,6,4,2,1,-1,-3
1482546950516339,-5,-6,0,7,4,2,1,0
1482546950531362,-4,3,5,-8,4,0,-1,-1
1482546950531362,16,-3,12,-5,-11,-4,-1,-1
1482546950533351,-5,-1,-27,11,9,3,-1,1
1482546950533351,-15,1,-19,-24,-5,-3,-2,-3
1482546950554485,1,-16,-34,-10,-6,-5,-3,-1
1482546950554485,1,-3,21,2,-2,-1,0,-2
1482546950555474,12,-2,7,19,6,0,0,-2
1482546950555474,-8,5,18,24,14,1,2,-2
1482546950567494,-1,15,-2,-34,-10,1,-7,0
1482546950567494,-8,-19,-32,-10,-4,-1,6,-1
1482546950576487,-13,-17,-7,-6,-10,-6,-13,-12
1482546950576487,1,-7,12,20,-2,1,10,0
1482546950591512,6,10,1,15,6,-1,-21,-4
1482546950591512,2,3,26,-1,-2,0,17,2
1482546950593508,11,7,-6,-11,-5,-3,-14,-5
1482546950593508,-19,12,-15,0,-4,-1,-7,-13
1482546950614524,2,-4,7,2,3,5,36,5
1482546950614524,-3,-2,4,-1,-3,-1,-27,17
1482546950615514,-3,5,5,9,2,-2,9,17
1482546950615514,5,-11,-1,-8,-2,-1,-7,1
1482546950627536,1,-3,6,1,-6,-7,2,0
1482546950627536,-9,8,5,5,3,1,-2,-15
1482546950636614,4,-1,-16,2,8,6,9,5
1482546950636614,19,12,3,-9,-7,-2,-6,6
1482546950651671,-43,-13,4,6,-3,-5,-37,-21
1482546950651671,4,-15,-4,0,2,1,50,13
1482546950653668,-5,3,5,-5,0,-2,-6,-3
1482546950653668,1,-5,2,-3,-12,0,-4,-6
1482546950673832,9,-3,2,4,4,-4,7,5
1482546950673832,8,26,-3,1,13,7,-11,-5
1482546950675824,-13,-8,3,6,-5,-3,-10,-11
1482546950675824,1,-8,-7,-19,-8,-1,24,20
1482546950687837,6,2,3,0,-3,1,-1,1
1482546950687837,0,-8,-5,-5,-14,-4,-10,-5
1482546950696828,9,5,7,-2,12,4,6,10
1482546950696828,3,18,5,11,-1,-2,-8,-6
1482546950711852,-2,-12,-2,1,-1,1,6,4
1482546950711852,2,-19,-2,0,-1,-1,-1,0
1482546950712849,2,9,3,4,-3,0,-26,-8
1482546950712849,-16,31,0,2,4,5,30,-5
1482546950733850,12,-36,1,2,6,7,38,88
1482546950733850,-27,-2,-4,-4,-2,6,45,-29
1482546950735857,2,3,5,-1,-5,-15,-76,-65
1482546950735857,11,8,2,0,8,6,-83,-45
1482546950747923,5,-5,-7,-2,-4,4,110,64
1482546950747923,9,-4,-3,-1,0,-2,-70,-11
1482546950756677,-2,-7,-2,-8,-4,-3,-10,-1
1482546950756677,-11,5,-4,3,-3,-3,-5,2
1482546950771761,8,13,3,6,0,-7,-45,-34
1482546950771761,-6,-6,2,-9,-9,-5,-15,-11
1482546950772764,-7,6,-5,3,12,3,44,15
1482546950772764,2,-23,0,-1,-8,-4,14,7
1482546950793817,5,19,26,-1,5,3,-40,-18
1482546950793817,2,-3,-30,18,2,-3,10,8
1482546950795777,0,3,1,-24,-14,1,13,1
1482546950795777,0,-14,0,17,8,0,31,22
1482546950807829,-4,1,-5,-9,9,-3,-56,-80
1482546950807829,5,10,13,25,9,9,46,61
1482546950816768,2,-1,-3,-32,-21,-1,32,-3
1482546950816768,6,-12,-7,-7,-1,-1,-73,17
1482546950831985,-6,7,3,11,8,-1,21,-25
1482546950831985,1,-1,4,3,4,2,35,-6
1482546950832947,-2,-9,-5,10,1,6,74,39
1482546950832947,-3,-4,2,-8,-2,-11,-69,-79
1482546950854634,3,18,-1,4,5,15,49,43
1482546950854634,-8,0,2,-12,-3,-7,-54,-35
1482546950855650,9,3,-3,5,-6,0,76,68
1482546950855650,-3,-6,5,10,4,-4,-7,-22
1482546950867660,-6,-8,-9,18,-12,-9,-70,-14
1482546950867660,8,7,-4,-50,1,-2,14,17
1482546950876662,-23,-13,5,40,34,6,-46,-31
1482546950876662,-2,-7,-6,-14,-13,0,12,12
1482546950891764,-1,0,-5,12,-2,-4,-3,-8
1482546950891764,6,-6,-3,-5,-18,-7,44,26
1482546950892759,-3,-5,4,-9,-7,-8,-49,-24
1482546950892759,-2,2,4,21,7,-1,34,13
1482546950913779,0,-5,-8,-33,5,6,15,15
1482546950913779,-6,-3,-4,4,-4,-12,-120,-76
1482546950915762,6,10,-4,-4,9,13,94,58
1482546950915762,0,0,12,5,2,4,-11,5
1482546950938315,-4,-2,-19,-10,-9,-5,32,9
1482546950938315,-8,-1,8,8,0,-7,-25,0
1482546950939814,-3,-4,-23,-10,-10,-6,-31,-24
1482546950939814,0,-1,1,-8,-3,-2,12,-11
1482546950950325,-3,-1,3,-3,-5,-5,-23,-13
1482546950950325,2,1,0,3,10,8,8,7
1482546950958892,2,1,3,34,-5,-2,-74,-44
1482546950958892,1,3,-7,-57,-1,6,71,39
1482546950973961,-5,-1,-1,19,-4,-4,-31,-23
1482546950973961,16,0,-7,4,-1,-1,50,42
1482546950975933,-5,-3,23,8,-6,-6,-74,-41
1482546950975933,-2,-10,1,23,-1,-1,47,39
1482546950987970,-4,18,0,-1,5,1,5,0
1482546950987970,4,-6,-6,-35,2,6,-30,-27
1482546950996920,6,5,-7,-8,-2,-4,-12,-3
1482546950996920,-5,-7,-7,20,11,0,-9,-6
1482546951011933,-8,-15,-2,-14,-8,-8,-43,-23
1482546951011933,-7,5,6,16,-6,-3,13,9
1482546951012958,-2,4,0,-34,-11,-3,12,7
1482546951012958,-1,-3,-3,12,6,2,10,7
1482546951034003,6,5,-30,-4,0,0,-14,-11
1482546951034003,-6,-2,-6,-33,-2,-3,-19,-13
1482546951035975,-4,-6,21,13,-5,-6,-5,9
1482546951035975,6,9,10,7,-5,4,17,5
1482546951048037,-4,-8,-2,-5,-4,-2,-15,-2
1482546951048037,-4,-4,0,31,2,-2,-42,-23
1482546951057123,-1,-4,3,-38,-3,-2,53,37
1482546951057123,0,0,1,-12,-7,-5,-19,-8
1482546951071137,-1,-2,1,-5,3,2,29,14
1482546951071137,0,3,-21,8,2,-2,-12,-9
1482546951078127,-1,-3,-6,-7,-4,-2,6,-6
1482546951078127,-4,1,0,9,-7,-3,-10,-10
1482546951094192,0,-4,4,-6,9,4,24,16
1482546951094192,2,6,11,7,-6,-3,-10,-4
1482546951096137,-1,-2,-4,9,9,4,-8,-1
1482546951096137,-2,-8,-2,-11,-19,-6,3,6
1482546951108174,4,-3,0,1,18,3,-1,-2
1482546951108174,-5,-5,5,-17,-19,-4,12,9
1482546951117180,-3,9,-10,-12,-8,-5,-12,-14
1482546951117180,0,-2,7,10,16,5,-4,-5
1482546951139404,0,-2,9,41,-20,-9,-6,-4
1482546951139404,-3,-5,-13,-35,-4,4,16,10
1482546951140849,3,9,21,3,-2,2,-1,0
1482546951140849,-1,-1,-56,-10,-11,-9,-12,-6
1482546951154374,-3,-4,14,-18,-12,-7,0,-3
1482546951154374,4,3,13,23,13,1,9,8
1482546951155890,-8,-6,-7,7,-10,1,-21,-11
1482546951155890,-1,-5,18,-9,9,5,24,19
1482546951175906,-1,-4,2,6,-1,0,1,-1
1482546951175906,4,29,-4,5,-3,-1,5,9
1482546951182913,-6,-11,-6,-5,1,-4,6,-2
1482546951182913,-2,-8,2,0,-10,-2,-8,-6
1482546951190918,2,-4,5,20,17,8,2,2
1482546951190918,-5,-6,-7,-22,6,3,10,3
1482546951197922,13,8,2,30,7,3,5,5
1482546951197922,9,3,-8,-13,-14,-8,-8,-4
1482546951213934,-3,1,14,-5,-11,-7,2,1
1482546951213934,-7,-11,4,-15,-19,-10,-4,-5
1482546951215931,-1,-5,-23,17,18,1,4,4
1482546951215931,4,2,-4,-6,-3,3,-2,1
1482546951236977,-3,9,34,2,-11,-3,-8,-6
1482546951236977,0,-5,-33,16,24,8,9,5
1482546951237934,0,0,29,-10,-15,-7,0,1
1482546951237934,0,3,3,18,-2,-3,-7,-4
1482546951250992,-1,-2,-26,-22,-3,-5,0,0
1482546951250992,-1,-1,14,14,-4,-2,4,-1
1482546951257670,-1,-7,-14,2,-1,3,4,1
1482546951257670,5,14,32,13,22,11,-3,-2
1482546951273783,7,-4,-4,-23,8,6,6,3
1482546951273783,-26,-12,-14,-1,-6,-7,-1,-3
1482546951275733,-7,-2,-2,23,-1,-3,-5,-2
1482546951275733,-4,-5,-1,-36,-8,-2,-5,-3
1482546951297772,-1,2,-15,9,3,-2,-3,0
1482546951297772,13,7,-5,13,11,9,5,5
1482546951299751,7,8,34,0,8,6,5,4
1482546951299751,-9,-9,10,110,1,0,0,-3
1482546951310808,-11,-22,-83,-112,-27,-14,-7,-6
1482546951310808,4,2,35,28,-5,-5,-6,1
1482546951317929,0,3,-13,7,18,4,9,4
1482546951317929,4,4,-38,-35,2,3,-2,0
1482546951341955,4,7,38,67,5,5,1,0
1482546951341955,0,-5,-5,12,6,-2,0,-2
1482546951343484,-1,-4,-51,-90,-7,4,-2,-3
1482546951343484,-7,-4,49,15,-1,-6,-4,-3
1482546951356965,-5,2,11,47,1,-2,-2,-3
1482546951356965,2,-1,1,-29,-6,-1,-1,1
1482546951357957,8,7,5,43,-2,-3,-2,-1
1482546951357957,3,5,-28,-57,15,6,1,2
1482546951371017,-3,-1,-12,-15,-8,-3,-2,0
1482546951371017,3,-6,7,19,-7,-1,0,0
1482546951378022,-2,-4,-3,-6,0,-3,-4,3
1482546951378022,-5,-5,5,-18,-3,-3,1,0
1482546951394033,3,4,16,15,7,2,1,2
1482546951394033,1,3,38,-14,-4,-1,-1,-1
1482546951396008,-5,-4,-2,45,-6,-4,-1,0
1482546951396008,2,22,15,-18,-9,-4,-4,-2
1482546951416994,-4,-28,-57,29,13,1,-2,-2
1482546951416994,4,17,23,-46,-1,1,4,2
1482546951418025,-5,-16,-23,0,-6,-3,-3,-4
1482546951418025,-3,-12,-17,9,-1,1,1,-3
1482546951430058,2,18,11,4,-14,-2,0,0
1482546951430058,-1,-8,-13,-3,-7,-2,-1,0
1482546951439523,-6,-14,-36,2,-1,-4,-2,-3
1482546951439523,4,16,48,-11,-2,-3,-2,0
1482546951454532,-3,-13,-61,-31,-9,-1,1,-1
1482546951454532,-8,-15,31,16,2,-4,-2,-4
1482546951455936,5,15,-6,-14,-2,3,2,1
1482546951455936,-2,-14,-13,10,-2,-2,-4,-1
1482546951477030,4,20,9,-23,2,0,0,1
1482546951477030,3,-8,-3,3,2,-1,1,0
1482546951478030,-7,5,49,8,-3,-2,-3,-4
1482546951478030,0,-10,-47,-3,4,1,-2,-2
1482546951499071,-2,0,40,19,2,-2,-1,-1
1482546951499071,6,14,14,6,1,1,0,1
1482546951501044,-3,0,-25,-20,0,5,0,-1
1482546951501044,-7,-17,-57,-1,-7,-4,-2,-1
1482546951516033,1,-3,95,30,-3,-2,0,-1
1482546951516033,2,-1,-40,-2,10,8,5,0
1482546951517033,-2,-3,1,-30,-13,-11,-6,-2
1482546951517033,1,4,20,4,5,3,1,-1
1482546951537072,1,0,-20,-22,6,2,0,0
1482546951537072,0,5,34,58,1,-2,-1,0
1482546951538071,0,-2,0,-29,-6,-3,-2,-3
1482546951538071,3,2,32,-3,3,-4,-4,-2
1482546951550583,9,-5,-4,15,10,3,0,0
1482546951550583,-29,-14,-23,-35,-11,-5,-2,-6
1482546951559698,0,7,36,-3,6,1,2,-1
1482546951559698,-2,-2,-5,10,-9,-5,-1,-3
1482546951573722,6,9,6,-14,-15,-5,-1,0
1482546951573722,5,5,47,16,2,-2,-2,-1
1482546951575722,-3,-15,1,16,10,4,1,0
1482546951575722,-5,-6,-69,-39,-8,-2,-2,-1
1482546951596737,-6,3,16,16,1,0,-1,-3
1482546951596737,3,-4,-51,-18,-7,-6,-1,-1
1482546951597737,1,3,31,-4,-3,-2,-1,0
1482546951597737,6,3,11,14,8,4,2,2
1482546951609797,-3,-1,-37,-26,-5,2,0,-1
1482546951609797,2,3,39,-2,2,3,2,-1
1482546951618788,13,1,-37,22,5,0,2,2
1482546951618788,-5,4,14,-12,-1,0,0,-2
1482546951633813,-4,-4,-14,-1,-3,-9,-3,-1
1482546951633813,0,-5,-12,6,1,-1,-3,0
1482546951635825,7,4,-5,-15,0,0,-2,1
1482546951635825,-1,-1,14,-17,-7,1,1,-1
1482546951657023,-7,-3,42,28,-3,0,-4,-1
1482546951657023,3,-1,-36,-2,5,-2,0,-2
1482546951658026,-3,0,8,0,-5,-2,3,0
1482546951658026,1,-2,9,12,17,5,0,2
1482546951670032,-1,4,-10,-37,-3,2,0,-1
1482546951670032,-1,-3,-10,38,5,0,-3,0
1482546951679025,-4,-5,-16,-9,-7,-1,-3,-2
1482546951679025,-2,7,21,9,3,-1,-2,-2
1482546951694153,-2,-7,-20,-1,2,0,0,-1
1482546951694153,2,0,-3,-1,-6,-3,-4,-2
1482546951696102,-5,2,-14,-5,-7,-5,-1,1
1482546951696102,-10,-3,7,14,-1,0,0,-3
1482546951716290,-1,0,17,6,4,2,0,-2
1482546951716290,-1,-3,-10,-12,-7,-1,-1,4
1482546951718256,-2,6,-2,34,9,6,0,-1
1482546951718256,3,-2,3,-52,-8,-9,-4,-3
1482546951730300,-4,-7,7,10,-2,0,2,1
1482546951730300,2,5,-13,-9,3,0,5,-1
1482546951739279,0,-6,36,1,0,-3,-1,-2
1482546951739279,0,-9,-45,35,-8,-4,-3,-1
1482546951754315,1,4,24,-16,4,2,-1,-1
1482546951754315,-5,-6,-20,-19,-3,1,-1,-2
1482546951755913,-8,-1,5,0,1,-2,-5,-3
1482546951755913,-1,-5,-3,3,-6,-2,-2,1
1482546951776933,0,6,6,4,6,2,-1,-1
1482546951776933,0,-1,-33,-15,-7,0,-2,-1
1482546951777929,-1,-6,-3,2,-2,-2,2,-2
1482546951777929,-2,1,16,-7,-5,-2,0,-2
1482546951798948,-1,-15,-45,-2,-4,-2,1,0
1482546951798948,-2,-2,12,5,1,0,-2,2
1482546951800946,0,0,-5,7,2,2,0,-1
1482546951800946,2,2,1,-31,-7,0,1,1
1482546951812958,7,5,-1,-1,3,-1,-1,1
1482546951812958,-3,-7,-6,11,-1,-5,-5,-5
1482546951819962,5,17,63,1,3,4,4,4
1482546951819962,5,-6,-37,15,2,1,0,1
1482546951836960,-13,-18,-63,-10,-6,-4,-4,-5
1482546951836960,-2,6,43,-8,-4,-3,-3,-3
1482546951837972,0,-3,-20,-12,-9,-5,-3,0
1482546951837972,6,13,18,27,20,2,-1,2
1482546951850509,0,5,19,-8,-7,0,0,0
1482546951850509,-1,-8,-20,-26,0,1,1,-2
1482546951859095,-4,-4,-2,14,-9,-6,-5,-5
1482546951859095,-3,-1,10,-13,-4,0,1,1
1482546951874109,-3,-5,-30,67,-1,-9,-6,-1
1482546951874109,1,4,-27,-22,7,3,3,2
1482546951876107,-4,-8,-27,-41,1,2,2,-1
1482546951876107,-4,-12,-22,-2,-5,-2,-2,-2
1482546951896217,2,3,15,-15,2,4,0,-1
1482546951896217,-3,5,8,13,-11,-3,-1,-2
1482546951898191,1,-2,-34,15,9,1,1,0
1482546951898191,2,15,48,-2,-3,1,1,1
1482546951910228,-1,-3,21,-21,-7,0,3,0
1482546951910228,3,2,12,5,-1,-2,0,1
1482546951919206,3,-4,19,-4,0,-1,-2,-2
1482546951919206,-15,-7,-36,2,-2,0,-1,-4
1482546951934245,1,14,26,-2,-1,-3,-3,0
1482546951934245,0,2,7,4,-3,-5,-2,-3
1482546951935196,3,0,1,-5,6,1,1,4
1482546951935196,3,-8,-2,15,0,3,0,0
1482546951956370,3,8,-3,-18,0,0,1,0
1482546951956370,1,-12,-18,9,-1,1,2,-1
1482546951958357,-5,4,-10,-14,8,4,0,-3
1482546951958357,-9,-18,21,45,-16,-9,-4,-5
1482546951970379,-2,4,28,-12,-1,-4,-2,-2
1482546951970379,-1,-14,-35,6,-4,-3,-2,0
1482546951979371,5,-1,-10,10,1,0,-1,1
1482546951979371,5,11,31,-20,7,3,3,1
1482546951994396,-2,0,-6,-28,-10,-5,-3,-3
1482546951994396,-3,-18,27,-6,7,8,4,1
1482546951995392,-4,-7,-28,15,-11,-10,-6,-4
1482546951995392,-2,5,27,17,2,-1,-2,0
1482546952016449,0,-4,-7,15,0,-4,-2,0
1482546952016449,-1,-2,1,-13,1,1,0,-2
1482546952018402,1,4,3,-8,-2,1,2,-2
1482546952018402,0,-7,-21,-14,-2,-2,-1,-2
1482546952030460,-2,-5,-19,-5,-1,0,0,-2
1482546952030460,-1,5,2,31,1,-1,-1,-1
1482546952039439,3,2,11,-41,-1,-2,0,0
1482546952039439,0,-5,-30,-10,-3,-2,-1,-1
1482546952054450,3,3,-1,21,1,0,0,0
1482546952054450,-1,4,7,-21,3,2,1,-2
1482546952055953,-2,-5,-4,17,-5,-1,-2,0
1482546952055953,2,6,12,2,1,-1,1,-1
1482546952077006,-3,-7,-34,-37,0,3,-1,-2
1482546952077006,-2,3,20,44,5,-7,-3,0
1482546952077969,-3,-3,17,-19,-2,2,0,-1
1482546952077969,-2,-2,24,21,0,-2,-2,-1
1482546952106105,-2,0,-44,-32,-1,4,3,0
1482546952106105,0,8,46,83,1,-3,-1,-1
1482546952108106,-2,-2,-6,-50,-1,2,0,0
1482546952108106,0,6,32,60,-8,-9,-5,-1
1482546952113170,5,-4,6,0,9,4,3,3
1482546952113170,2,4,-33,-29,-6,0,-1,-2
1482546952120173,-1,2,-25,16,4,0,0,-1
1482546952120173,-1,-8,-7,-44,-7,2,1,-3
1482546952136182,0,7,3,23,-1,-3,-1,1
1482546952136182,2,-2,3,-29,1,1,-2,-1
1482546952138128,-4,-3,7,28,-1,-2,-4,-1
1482546952138128,-3,-10,-39,-32,-2,-3,-1,-1
1482546952158780,1,-1,29,12,-6,-5,-3,0
1482546952158780,-1,2,1,-18,2,1,-1,0
1482546952160777,1,-1,7,0,-5,0,2,1
1482546952160777,0,1,-32,-14,1,1,1,1
1482546952173787,-3,0,42,45,6,3,3,-2
1482546952173787,-5,-5,-13,-25,-5,-3,-2,0
1482546952179792,-3,-5,17,17,-4,-5,-3,-4
1482546952179792,1,7,-37,-43,2,0,1,-1
1482546952196806,0,1,44,37,0,1,-1,0
1482546952196806,-5,-9,-19,-28,-9,-5,-4,-2
1482546952197791,0,-3,-4,12,0,-2,0,0
1482546952197791,-1,2,-5,0,1,0,-3,-2
1482546952218810,-2,-2,-15,-21,5,3,-1,-2
1482546952218810,0,5,0,-5,-4,-1,1,3
1482546952220807,6,3,-1,8,1,-3,-1,1
1482546952220807,-5,-4,10,-7,-1,-1,-2,-4
1482546952233849,-12,0,-15,-8,-2,-1,1,0
1482546952233849,10,3,-2,7,3,0,-2,-1
1482546952239876,1,-3,6,-5,-3,3,6,5
1482546952239876,6,4,36,22,-3,-3,-8,-6
1482546952256386,-4,-10,-29,-14,-6,-5,-2,0
1482546952256386,-7,5,12,-7,-3,-3,1,-2
1482546952258401,-7,2,-8,-1,0,0,-9,-2
1482546952258401,-2,0,4,-3,-1,-2,7,5
1482546952279419,15,-1,1,-4,1,5,3,-2
1482546952279419,-10,-2,-5,4,1,1,-3,-4
1482546952281420,1,-3,0,22,3,2,-3,1
1482546952281420,-5,-3,-16,-47,-3,3,11,3
1482546952293468,-3,0,6,13,-5,-10,-7,-3
1482546952293468,2,2,19,27,3,-1,5,2
1482546952300436,-3,-9,-46,-57,-15,-5,-9,-6
1482546952300436,0,11,9,45,6,-1,-2,1
1482546952316484,-4,-14,22,4,-4,0,3,-1
1482546952316484,2,5,4,-13,-4,-3,-2,0
1482546952318457,-5,6,40,24,4,-1,4,2
1482546952318457,3,4,-69,-40,-7,0,-3,-2
1482546952339476,4,-3,-8,4,4,5,1,2
1482546952339476,-2,-6,-14,36,1,-2,-7,-1
1482546952340980,0,-4,28,-28,-2,-2,0,-2
1482546952340980,4,11,10,12,3,2,2,0
1482546952353480,-7,-3,-25,-15,-1,-1,-3,-1
1482546952353480,-4,-6,-18,-16,3,4,-2,-3
1482546952360081,15,3,12,36,-2,-1,13,3
1482546952360081,-1,-10,10,-19,0,1,-2,1
1482546952377088,-2,-1,-15,-4,-7,-5,-4,-4
1482546952377088,0,-2,-36,-77,-5,-2,-3,-3
1482546952378089,-5,-3,16,27,-1,-2,-4,-4
1482546952378089,-4,-3,6,22,5,-1,-2,-1
1482546952399200,-3,0,3,-2,5,3,0,-2
1482546952399200,3,3,-3,-8,3,2,9,7
1482546952401149,-4,0,-11,-2,-3,-5,-14,-5
1482546952401149,-3,-8,-5,-8,-4,-1,18,5
1482546952413156,1,4,16,9,-4,-2,-2,1
1482546952413156,1,3,16,13,2,5,0,-1
1482546952420177,-6,-1,5,2,-3,-6,-2,-2
1482546952420177,-4,-7,6,10,4,0,-10,-6
1482546952436187,2,7,2,-15,2,1,-3,0
1482546952436187,0,-2,-2,-2,-3,-2,2,-1
1482546952438185,-2,-3,-18,23,3,1,0,1
1482546952438185,-1,1,15,-28,-2,0,-5,0
1482546952459442,-2,-4,-1,7,-7,-4,-1,-2
1482546952459442,-1,-2,2,16,0,-1,-4,-1
1482546952460394,1,1,-9,-8,9,3,3,1
1482546952460394,-1,-4,2,15,-1,-1,-2,-2
1482546952472454,-1,1,-2,-3,4,1,1,1
1482546952472454,2,2,5,-5,-7,-3,-2,-2
1482546952481404,2,-8,-4,-6,2,3,5,-1
1482546952481404,-8,-4,-6,10,-3,0,2,3
1482546952504450,0,3,2,-9,-2,-2,-1,-4
1482546952504450,2,3,1,3,-1,-2,9,7
1482546952505449,9,-3,-10,-12,-5,-3,-14,-4
1482546952505449,-2,-2,8,5,-1,0,20,9
1482546952519477,3,2,-7,0,1,-1,-4,0
1482546952519477,-12,-8,21,-5,-2,-3,-3,-6
1482546952520437,-1,1,-13,-2,1,3,2,0
1482546952520437,1,-1,-4,0,-6,-3,-11,-7
1482546952542009,1,1,2,-1,0,-3,2,3
1482546952542009,4,-1,-5,4,0,-1,-21,-6
1482546952543542,-2,0,5,-7,2,0,28,7
1482546952543542,-4,1,2,-1,-4,-2,-4,-6
1482546952557736,-3,-1,-1,-3,-5,-2,-1,2
1482546952557736,1,-1,-2,1,4,2,-41,-42
1482546952559733,-5,-2,1,0,-1,3,43,46
1482546952559733,1,-4,-7,1,-1,-1,-9,1
1482546952578735,-3,-2,-2,-4,-5,-4,-10,0
1482546952578735,-2,-4,-4,-5,-7,-6,9,7
1482546952594771,-3,2,2,-1,1,3,-32,-21
1482546952594771,3,0,-2,4,-1,3,0,-3
1482546952595757,0,0,-4,-2,4,6,-6,0
1482546952595757,-1,1,10,-15,-4,-6,12,7
1482546952608752,-5,0,18,38,-1,-1,-8,-11
1482546952608752,0,4,-1,-3,-1,-7,-37,-15
1482546952616813,1,-2,-8,2,-2,2,38,10
1482546952616813,-1,-8,-28,-7,-2,-1,9,7
1482546952617763,-1,-1,3,-11,0,0,0,-4
1482546952617763,1,0,4,6,-2,-1,2,-2
1482546952638829,-1,-3,0,-4,4,1,-14,-9
1482546952638829,3,4,7,8,1,4,2,9
1482546952640804,-5,-8,-29,-15,-3,-4,-6,-17
1482546952640804,1,-1,4,4,2,-2,-67,-10
1482546952652835,5,4,1,-2,3,6,93,55
1482546952652835,-2,-4,13,10,-2,0,15,21
1482546952661918,0,2,-3,-16,-4,-1,-12,-6
1482546952661918,1,3,-2,-3,-1,1,5,-7
1482546952676936,-2,-5,0,-1,0,-7,-44,-28
1482546952676936,1,0,-7,2,0,3,29,9
1482546952677930,-1,6,3,-1,-1,-2,-23,-10
1482546952677930,-4,-6,-17,-3,-2,-2,40,19
1482546952699042,-2,2,17,3,0,-3,-27,-14
1482546952699042,1,6,-1,7,-1,-5,-2,-4
1482546952700994,0,-4,-8,-12,-1,-2,-3,-1
1482546952700994,-12,-5,12,-1,-2,0,8,-2
1482546952713052,0,0,-46,-6,-5,-1,-1,2
1482546952713052,4,-1,-3,0,2,1,-13,-7
1482546952722030,-13,-4,3,0,-12,-11,-19,-10
1482546952722030,6,1,3,5,-6,-3,-5,0
1482546952737044,-2,1,12,5,11,-2,-44,-31
1482546952737044,-3,-4,-4,7,4,3,25,18
1482546952738022,4,2,-8,-31,0,3,-3,-5
1482546952738022,2,-2,-3,2,-5,0,34,25
1482546952758829,-3,-6,7,-3,-8,-6,16,5
1482546952758829,-1,-3,1,31,10,1,-18,-5
1482546952760813,4,1,7,-39,-3,5,2,3
1482546952760813,-3,-7,-12,0,7,2,-8,-13
1482546952772841,2,7,2,-1,0,2,-13,-3
1482546952772841,-1,-1,11,-10,-4,-2,-2,-2
1482546952781842,-4,-9,-28,3,-6,-3,2,2
1482546952781842,-1,0,18,-1,-2,-4,-9,-6
1482546952797897,-3,-5,1,7,0,-2,2,5
1482546952797897,0,1,-4,9,-6,-2,-12,-8
1482546952799924,-3,-3,-8,-17,5,-5,-6,-9
1482546952799924,3,0,-2,-13,-3,1,8,6
1482546952818964,-3,-3,9,3,-1,-2,-7,-5
1482546952818964,2,4,11,-3,0,0,-14,-9
1482546952820939,5,0,-20,14,4,3,-1,-9
1482546952820939,6,8,-2,4,3,2,39,19
1482546952832974,-9,-11,-11,-9,-11,-7,-8,0
1482546952832974,-1,-4,-16,-13,-3,-1,-14,-4
1482546952849451,-2,3,13,20,2,-1,13,9
1482546952849451,7,6,0,4,4,5,1,-6
1482546952856942,5,2,9,-5,-2,0,-4,3
1482546952856942,-12,-3,-4,-9,-1,-2,2,-6
1482546952858125,-4,-7,5,20,2,-6,-21,-4
1482546952858125,-5,-4,-2,25,0,3,1,0
1482546952886249,3,2,-4,-44,-9,-1,-4,4
1482546952886249,1,-4,-10,-9,-7,-4,2,3
1482546952888193,5,8,17,5,12,5,1,3
1482546952888193,-7,-3,26,5,1,-4,1,-3
1482546952893227,-2,-2,-31,6,-3,0,-4,-1
1482546952893227,-1,-1,10,-15,-10,-5,-11,-8
1482546952902203,-2,0,-19,-7,-4,-2,-16,4
1482546952902203,4,-1,-22,-10,-1,0,21,4
1482546952916242,-5,-4,33,15,-3,-5,-26,-15
1482546952916242,0,4,6,0,3,6,-1,-4
1482546952918218,-2,-7,7,8,-2,1,27,20
1482546952918218,-2,-1,-21,28,4,-2,-22,-9
1482546952939287,3,3,19,-36,4,3,-2,2
1482546952939287,-1,-2,6,8,-2,-4,5,-1
1482546952940258,4,3,1,5,-2,0,2,-6
1482546952940258,-4,-6,-1,-14,-6,-5,-38,-20
1482546952953263,-3,-1,-24,10,1,0,21,8
1482546952953263,7,-6,-4,3,4,4,-11,11
1482546952961439,-2,0,-7,-14,-4,0,31,8
1482546952961439,-20,-7,23,18,-4,-7,1,10
1482546952975452,4,7,-7,-16,1,7,-4,-12
1482546952975452,-2,-1,-9,-4,2,-6,-9,-6
1482546952982457,2,1,37,-9,1,3,4,-1
1482546952982457,-1,-7,-35,-24,-2,-2,-22,-16
1482546952999454,5,5,50,1,-9,1,11,12
1482546952999454,4,-3,-58,7,2,3,9,2
1482546953000453,0,-2,24,21,3,-3,-9,-8
1482546953000453,-10,-5,-16,-30,-8,-7,-7,-12
1482546953021488,-4,-8,-50,8,9,-1,2,4
1482546953021488,3,4,59,-2,-16,-3,8,0
1482546953023472,2,3,-10,24,11,2,-4,1
1482546953023472,7,5,15,30,1,0,2,4
1482546953035495,-1,-5,-8,-17,-4,0,9,-8
1482546953035495,-4,2,4,15,-1,-2,-21,-12
1482546953043022,-3,-3,82,11,-3,0,14,14
1482546953043022,5,3,-63,-24,4,2,1,2
1482546953058642,-3,-1,6,-2,-1,-3,-5,-5
1482546953058642,-2,-4,-9,-10,3,-2,-8,-7
1482546953060625,2,3,88,34,-11,0,13,2
1482546953060625,-17,-20,-71,-44,26,10,-2,-7
1482546953081657,6,9,1,-3,8,3,8,8
1482546953081657,0,0,-22,10,26,5,-1,5
1482546953083645,0,2,12,6,-8,-4,-7,-9
1482546953083645,0,-2,-23,5,-14,-8,-4,-1
1482546953095666,1,-5,25,2,-7,-2,-1,0
1482546953095666,2,7,28,2,1,2,10,10
1482546953102674,2,-3,-46,-12,-2,-7,-19,-18
1482546953102674,10,9,55,2,-8,-2,3,5
1482546953118684,-21,-14,-49,-7,-1,-4,-4,-7
1482546953118684,9,7,-25,-4,-7,2,16,10
1482546953120667,-6,-6,-15,-10,2,3,4,2
1482546953120667,-3,3,55,-4,-4,3,-4,-4
1482546953141796,-3,-6,-42,18,0,-3,-3,-13
1482546953141796,-8,-3,44,-2,-13,-6,-7,4
1482546953143310,-1,-3,-70,-59,-6,5,13,10
1482546953143310,-8,0,16,-4,-14,-4,5,-7
1482546953156343,10,9,89,57,23,-1,4,12
1482546953156343,5,2,-33,-20,-12,1,-12,1
1482546953163143,-1,-4,-82,-24,44,7,-24,-27
1482546953163143,-8,-3,43,45,-3,-6,3,14
1482546953179181,-1,-1,-58,-56,-21,-7,3,-2
1482546953179181,2,14,88,61,-3,-7,9,-2
1482546953181132,-4,-23,-75,-46,-15,1,9,6
1482546953181132,3,1,33,-18,5,0,-4,-18
1482546953201156,5,-7,-44,26,8,8,0,14
1482546953201156,-20,-18,-39,-25,-9,-10,-9,-11
1482546953203156,9,10,53,10,-4,2,25,-2
1482546953203156,6,6,33,20,-3,-3,-20,18
1482546953216167,6,5,37,28,-11,-6,-16,6
1482546953216167,10,8,-43,32,20,0,-11,-14
1482546953223154,-2,8,4,-61,-29,-11,-15,11
1482546953223154,2,2,47,21,7,-3,10,1
1482546953239224,-4,-8,-61,27,-23,4,15,3
1482546953239224,-2,-3,-15,-47,-13,7,39,18
1482546953241175,10,9,100,30,17,7,-26,-36
1482546953241175,-17,-21,-35,-19,-15,-11,-18,-8
1482546953261833,11,16,127,43,-3,-10,-15,-2
1482546953261833,-3,-9,-37,-38,7,13,25,-3
1482546953262831,-8,6,38,17,-30,-13,-9,-18
1482546953262831,17,6,-96,-68,10,5,-10,31
1482546953275882,-20,-17,0,-8,-1,-8,-18,-9
1482546953275882,-8,-2,-1,9,-8,0,4,-13
1482546953282837,2,8,40,33,-10,9,53,23
1482546953282837,10,2,7,73,46,23,26,28
1482546953298898,-4,6,-1,-7,-13,-30,-75,10
1482546953298898,17,7,0,21,15,-10,-45,-19
1482546953300848,-40,-35,-112,-13,-12,-17,-29,-1
1482546953300848,-7,2,88,16,-10,-2,28,-7
1482546953321865,0,3,28,-4,3,13,28,-5
1482546953321865,-25,-14,7,-14,-4,-3,2,-11
1482546953322863,13,7,22,-5,1,5,3,23
1482546953322863,-1,2,-59,52,31,6,-6,-30
1482546953334923,15,24,17,-54,2,11,22,1
1482546953334923,5,-5,-22,-45,-40,-4,10,17
1482546953344441,3,-5,-19,34,22,-5,3,3
1482546953344441,8,10,-9,8,-35,-8,-5,-12
1482546953359148,12,18,25,16,40,6,-26,-14
1482546953359148,-22,-37,-37,9,-4,-10,-2,4
1482546953361135,-1,-3,17,23,-14,-6,-22,-6
1482546953361135,-3,-9,-2,-48,-13,0,22,-5
1482546953381200,9,9,47,6,7,14,22,8
1482546953381200,7,0,-13,-21,-14,-9,15,-3
1482546953383174,-24,-10,-15,37,9,-8,-14,16
1482546953383174,4,-13,-29,-30,-13,-8,-23,-27
1482546953404219,-17,-4,-42,-9,-7,-3,1,-15
1482546953404219,8,11,55,25,17,9,27,10
1482546953406167,11,12,-36,-30,2,11,8,3
1482546953406167,-2,0,7,-27,-20,-13,-11,-3
1482546953419229,1,-5,32,31,-4,-5,-21,16
1482546953419229,1,3,-1,90,70,12,-28,3
1482546953421180,-10,-24,-41,-54,-3,-4,8,5
1482546953421180,-1,5,38,-20,-20,4,19,-6
1482546953441216,-11,-20,-12,-74,-33,-8,11,-14
1482546953441216,8,9,2,31,44,19,18,14
1482546953443235,5,13,15,45,20,-12,-25,17
1482546953443235,-17,-9,-47,-18,5,4,-11,-16
1482546953456259,-9,-11,5,9,-13,-7,3,-12
1482546953456259,1,6,20,-28,-22,-5,-28,-13
1482546953462451,1,-2,-13,-29,-8,-1,-31,-38
1482546953462451,8,9,29,7,3,11,-5,31
1482546953479430,4,2,-11,14,11,18,-9,6
1482546953479430,-1,-5,8,-21,-16,-15,-18,2
1482546953480459,-1,10,-10,11,3,-4,-70,-7
1482546953480459,18,1,30,19,7,8,5,17
1482546953501464,-54,-15,-45,0,0,-17,40,-26
1482546953501464,17,1,-6,-39,-9,4,2,21
1482546953503461,-16,2,29,6,-10,-7,6,38
1482546953503461,1,-1,-6,0,3,-6,18,-65
1482546953515469,3,-4,-2,0,11,11,-17,2
1482546953515469,-13,1,29,-6,-14,-4,3,-7
1482546953524476,20,4,21,18,0,4,8,0
1482546953524476,-9,-10,41,-16,-3,-3,-49,1
1482546953539472,3,-1,-21,3,2,2,73,14
1482546953539472,-9,0,-4,-7,-14,-17,-42,-38
1482546953540477,6,4,-5,10,4,16,52,8
1482546953540477,-1,1,-30,-3,4,-9,-43,5
1482546953561638,17,0,-2,-5,-1,3,7,5
1482546953561638,-19,0,-14,0,1,0,-39,-14
1482546953563627,2,-4,-3,2,-5,0,51,24
1482546953563627,1,3,-25,-51,1,5,2,4
1482546953575657,1,-6,-8,1,-2,-4,-26,-2
1482546953575657,-6,-1,41,22,-8,-5,-38,-25
1482546953584640,0,1,-11,-6,-3,-1,28,-19
1482546953584640,-5,0,-14,39,7,-5,10,8
1482546953598647,6,-2,20,31,1,4,20,21
1482546953598647,5,-1,-22,-85,3,3,-12,-5
1482546953600650,0,1,-16,-15,2,-2,-14,-19
1482546953600650,9,1,24,23,-6,-4,13,46
1482546953621663,-2,2,-56,-43,5,-3,-30,-40
1482546953621663,-2,-5,27,32,-6,-1,32,-18
1482546953622664,-1,-3,21,24,-4,-3,-15,-4
1482546953622664,3,10,-28,-25,5,2,13,1
1482546953634672,-5,-18,-21,-5,-4,-7,-23,10
1482546953634672,3,12,13,0,-5,-2,20,20
1482546953644181,3,3,-4,-16,3,3,6,-5
1482546953644181,-5,-25,-22,9,-3,-1,-15,-6
1482546953659191,8,35,1,10,2,-2,3,1
1482546953659191,-1,-7,15,1,-2,1,19,15
1482546953660193,-3,3,25,-3,-4,0,-16,-14
1482546953660193,-4,2,16,7,-4,-4,11,1
1482546953682208,13,1,12,-3,-2,-5,-10,2
1482546953682208,-14,-5,-38,4,0,3,12,0
1482546953683209,-2,12,19,-23,-3,-3,-10,-11
1482546953683209,9,3,7,12,2,1,-16,7
1482546953695218,-17,-15,-28,-6,0,2,31,3
1482546953695218,4,16,24,31,-4,-4,-19,0
1482546953704224,12,-11,35,10,4,3,22,6
1482546953704224,-3,-3,-21,-14,-5,-2,4,-4
1482546953719235,1,-3,11,-10,-2,-2,-11,-5
1482546953719235,7,3,-16,4,2,0,2,7
1482546953720235,-8,-7,-34,-4,-9,-5,-8,-1
1482546953720235,-1,3,19,-5,-2,0,4,-5
1482546953741250,5,7,29,21,11,4,-10,2
1482546953741250,-2,-8,6,-14,-5,-1,14,5
1482546953743252,1,-1,16,-9,-2,-5,-10,-4
1482546953743252,-7,-18,-66,0,-8,-6,1,-3
1482546953755262,-8,-11,22,30,-18,-5,-5,-3
1482546953755262,4,-2,10,-17,32,22,17,13
1482546953764270,8,24,31,-4,0,-2,-3,4
1482546953764270,3,9,-46,9,11,6,-1,-1
1482546953778280,-11,-16,-10,-11,-35,-19,-7,-5
1482546953778280,1,-4,26,52,8,-5,-2,-1
1482546953785285,8,17,26,-4,-4,2,0,0
1482546953785285,-5,19,26,-8,-4,1,2,2
1482546953801297,4,-25,-69,-15,22,6,-1,2
1482546953801297,-1,2,-12,-9,-15,-2,-1,1
1482546953803298,-4,-11,-20,2,-5,-7,-6,-4
1482546953803298,1,1,53,19,-1,-7,1,-1
1482546953824313,6,1,4,-20,-3,3,2,1
1482546953824313,13,0,-23,-4,4,-2,0,1
1482546953825318,-14,-5,-19,20,5,2,-9,-8
1482546953825318,-26,-13,-1,-34,-7,-4,-6,-4
1482546953839324,2,7,12,-7,-1,0,26,12
1482546953839324,16,-7,-6,-3,-7,-4,-27,-9
1482546953840325,12,6,-10,7,3,1,48,21
1482546953840325,-19,2,13,13,1,-2,-6,-7
1482546953861344,-9,-12,3,-4,-1,0,-14,-5
1482546953861344,-6,-13,2,-6,0,-2,8,6
1482546953863345,6,-6,-20,3,5,2,-19,-3
1482546953863345,15,7,2,-3,-2,-1,5,7
1482546953875353,10,13,14,12,11,2,8,2
1482546953875353,2,1,-5,-7,-9,-4,-22,-26
1482546953884360,-8,-2,-10,-4,-2,0,19,31
1482546953884360,-4,-5,5,9,9,5,12,2
1482546953899370,-8,-6,10,-3,1,1,-18,-16
1482546953899370,-1,11,-2,-7,-9,-4,13,9
1482546953900371,-5,-4,-10,-4,1,1,6,1
1482546953900371,-1,-8,6,3,-1,3,-7,-10
1482546953921398,-1,12,8,3,1,0,15,-14
1482546953921398,30,5,-9,-7,-4,-3,-15,21
1482546953923399,-31,-5,-23,-4,-1,-1,-7,3
1482546953923399,3,-12,8,-3,-5,-5,-4,-12
1482546953945430,5,-17,-21,-1,-1,-1,-14,-3
1482546953945430,2,14,15,-1,1,0,16,-6
1482546953947431,8,-10,4,0,1,-2,-11,0
1482546953947431,12,10,-18,13,1,1,-2,6
1482546953958440,5,17,70,-1,-2,-1,-2,3
1482546953958440,-9,-24,-74,-2,2,-1,7,4
1482546953965443,-6,12,4,-13,-7,-3,-13,-14
1482546953965443,-2,-8,24,2,0,-1,0,0
1482546953981453,-4,-4,-8,6,7,2,-1,0
1482546953981453,-18,-10,25,10,-6,-3,4,2
1482546953983455,8,-7,-32,-2,1,0,-20,-13
1482546953983455,3,6,17,-11,-3,-1,9,1
1482546954004459,-40,-10,6,4,0,1,-5,7
1482546954004459,1,-6,2,-7,-2,-1,5,-7
1482546954005970,-3,-1,-11,5,-1,-2,-11,-14
1482546954005970,32,19,9,7,2,3,-1,6
1482546954018480,-8,17,-20,-15,-4,-5,-6,-3
1482546954018480,-32,-24,0,5,2,3,12,-2
1482546954025484,0,-5,59,15,4,1,-16,-16
1482546954025484,8,-3,-69,-16,-10,-8,-4,22
1482546954041495,3,8,30,-16,-5,-5,-11,-14
1482546954041495,-5,-6,-23,2,3,3,-31,-6
1482546954043496,6,14,-52,-33,-18,-9,3,15
1482546954043496,-25,-14,24,10,3,-2,-5,-16
1482546954064011,-4,-15,-18,6,11,8,-3,-9
1482546954064011,22,11,41,5,-6,-3,-14,-15
1482546954066018,-7,-15,46,38,19,11,18,-4
1482546954066018,16,29,-38,15,-7,-4,2,-4
1482546954078521,-14,-14,-11,-36,-15,-5,-3,-1
1482546954078521,-30,2,9,-8,3,1,-12,-2
1482546954085527,21,-2,-5,-8,-17,-8,-9,-2
1482546954085527,-21,-19,18,-14,10,4,-7,-29
1482546954101538,-26,19,26,35,9,4,-6,12
1482546954101538,-104,27,10,0,1,2,-6,11
1482546954103529,-57,2,-6,12,-1,1,25,18
1482546954103529,35,-24,-13,-59,-14,-11,-33,-19
1482546954124053,-17,-13,29,18,-5,2,52,18
1482546954124053,-19,-22,-33,-1,-1,-11,-80,-37
1482546954125560,-19,3,-6,-5,2,8,19,0
1482546954125560,-28,27,47,24,6,6,54,47
1482546954138564,50,20,-32,15,12,8,34,7
1482546954138564,14,2,9,-35,-3,1,-16,-12
1482546954152613,40,0,31,17,-12,-12,-10,-8
1482546954152613,5,-13,26,25,0,-2,-18,-19
1482546954161624,41,9,-39,-23,-4,-6,-15,-4
1482546954161624,-35,2,11,13,6,5,48,14
1482546954163120,42,-3,4,-10,4,1,-9,10
1482546954163120,-30,16,23,5,6,7,5,8
1482546954184266,28,2,23,1,-1,-3,-8,0
1482546954184266,-4,-20,-31,0,-4,-3,19,9
1482546954185232,16,-2,5,-32,-4,-5,-69,-30
1482546954185232,-7,-2,-1,26,2,-2,22,-3
1482546954198279,11,4,35,28,5,7,16,49
1482546954198279,25,-16,-26,-26,-8,-7,14,2
1482546954205283,-80,-6,-20,2,-5,-8,-14,-8
1482546954205283,74,8,-9,-12,-1,-2,-42,-19
1482546954221273,-44,3,-16,11,3,-7,-19,-23
1482546954221273,38,-13,101,10,0,3,10,10
1482546954223268,-25,7,8,-13,-3,6,14,-8
1482546954223268,1,-5,-18,-30,-9,-6,-54,-84
1482546954244288,-9,-4,-7,-16,-6,-3,106,97
1482546954244288,-28,21,24,52,3,3,18,-19
1482546954245277,25,-15,-19,-18,4,2,28,-2
1482546954245277,-6,-1,32,0,-3,4,44,28
1482546954257817,43,-27,-80,-53,-17,-18,-92,1
1482546954257817,-15,1,9,2,0,2,45,-20
1482546954266922,-2,-16,5,2,1,2,53,8
1482546954266922,-15,31,29,18,1,12,-38,0
1482546954281597,49,-1,-9,15,0,-8,7,-48
1482546954281597,3,-11,-25,-19,-7,-3,49,80
1482546954283585,-36,-25,-1,5,-1,-2,6,-7
1482546954283585,31,-4,29,25,3,-2,9,10
1482546954303663,4,17,46,4,2,8,-37,-30
1482546954303663,1,4,-45,-41,-12,-10,-108,-67
1482546954305597,22,4,9,15,2,2,33,2
1482546954305597,-10,-8,12,12,1,2,36,65
1482546954317672,-25,-10,-35,6,0,0,-3,-6
1482546954317672,19,9,-4,-13,-5,-3,10,2
1482546954326612,-15,-25,-61,13,7,-2,-29,1
1482546954326612,-29,-7,-25,-8,-4,-4,-3,-15
1482546954341687,-69,-25,-18,-12,-8,0,3,-25
1482546954341687,65,16,-25,-1,3,-4,-9,12
1482546954347692,-6,-2,3,5,-3,0,-9,-31
1482546954347692,11,-8,-21,-1,0,-5,46,43
1482546954364235,16,12,45,28,4,1,-30,-42
1482546954364235,-54,-2,-63,-26,-2,3,38,31
1482546954365714,60,29,100,12,6,3,-37,-11
1482546954365714,-22,-22,-36,-8,-6,-3,40,-23
1482546954377554,-81,-16,-51,-42,-3,-1,-8,-22
1482546954377554,15,1,52,8,-4,-4,7,-8
1482546954386508,-14,24,12,-13,1,-1,1,13
1482546954386508,0,2,15,9,-1,-1,-15,-45
1482546954401572,5,-3,1,2,-2,-6,-21,-35
1482546954401572,27,18,27,44,3,1,-1,-9
1482546954403508,-5,-15,-61,-31,7,3,-4,10
1482546954403508,-19,-2,-24,-67,-7,2,7,27
1482546954424522,7,-7,1,-22,1,-5,-57,-43
1482546954424522,-2,-5,4,23,-6,-4,1,-22
1482546954425547,15,22,75,32,2,0,34,-27
1482546954425547,-25,-13,-31,13,-6,-8,-88,-23
1482546954437597,-15,14,4,2,7,6,20,14
1482546954437597,0,10,-33,-42,-9,-7,-8,-13
1482546954452611,-7,-26,9,64,2,-1,-11,-1
1482546954452611,3,6,-11,-56,5,4,6,15
1482546954461586,18,7,17,26,-2,1,20,25
1482546954461586,5,4,3,3,4,4,6,2
1482546954463568,-2,3,-44,-16,-6,-6,-22,-2
1482546954463568,2,-10,4,18,-3,-4,-5,-2
1482546954483712,13,13,36,-3,-4,2,-8,42
1482546954483712,3,-5,28,5,1,3,34,61
1482546954485696,-16,-24,-95,-25,-4,-3,-30,-43
1482546954485696,20,16,4,12,-3,-4,-8,-1
1482546954497721,12,2,35,11,6,3,6,-8
1482546954497721,-14,-8,4,34,1,-1,-12,-15
1482546954506723,6,-2,-3,-73,-2,2,10,33
1482546954506723,-13,0,-14,2,-15,4,7,-17
1482546954521742,8,-10,-69,1,0,-5,26,6
1482546954521742,16,2,14,-24,4,0,10,19
1482546954522743,-2,16,33,12,0,1,-10,3
1482546954522743,-15,-15,10,30,4,-5,-3,-7
1482546954551765,2,3,27,-5,-4,-4,-6,-5
1482546954551765,4,-7,-29,3,1,3,-1,-4
1482546954552758,0,10,32,-7,-5,-5,0,3
1482546954552758,2,-1,25,-16,4,0,1,2
1482546954557787,-7,-28,-57,7,-10,-7,-10,-4
1482546954557787,1,5,27,-12,8,6,55,19
1482546954566779,8,17,15,19,-7,-3,-17,21
1482546954566779,-4,-9,-10,1,7,2,12,26
1482546954582928,3,16,50,-27,0,0,8,-6
1482546954582928,2,-3,2,-3,7,1,-7,-12
1482546954584926,-9,-16,0,84,-12,-5,10,-3
1482546954584926,-1,2,-7,-66,11,7,1,-3
1482546954603946,-1,3,18,53,-1,2,0,11
1482546954603946,17,-5,8,-19,-28,-16,-28,-23
1482546954605941,2,1,-58,-27,11,5,4,6
1482546954605941,-4,-3,35,36,-2,-5,-6,-4
1482546954618095,13,10,-52,21,2,3,10,6
1482546954618095,-5,5,42,-92,10,6,-5,-2
1482546954627035,-12,-21,55,88,-10,-7,-3,-10
1482546954627035,8,11,-24,-1,18,5,9,4
1482546954641040,-9,-6,-8,2,-10,-2,1,0
1482546954641040,-6,-8,-24,21,-20,-12,-15,-8
1482546954643066,3,1,-45,-88,12,4,2,2
1482546954643066,-9,0,33,-15,-1,1,16,12
1482546954664143,-2,-10,50,58,-2,-1,-13,1
1482546954664143,1,4,-14,10,16,4,8,1
1482546954666143,5,-6,0,-19,-6,4,7,3
1482546954666143,-5,-2,-13,17,-6,-2,-5,-5
1482546954677857,1,7,1,-49,6,-3,-3,-1
1482546954677857,1,-5,-4,30,-17,0,-2,0
1482546954686860,-4,4,5,-6,8,-8,-1,-2
1482546954686860,2,1,-16,-15,2,5,0,-2
1482546954701943,-1,-2,4,14,8,6,6,4
1482546954701943,-3,0,5,18,-22,-12,-14,-9
1482546954702872,0,8,2,-8,-4,0,3,2
1482546954702872,-1,-2,-6,-6,-12,0,-6,-4
1482546954723943,7,10,10,44,-10,-10,1,2
1482546954723943,-6,-12,22,3,-9,-1,-9,-7
1482546954725892,0,-9,-68,11,38,27,11,7
1482546954725892,-3,-9,-17,-41,-27,-12,-3,-3
1482546954737953,-1,1,-3,-67,-10,1,2,-3
1482546954737953,3,12,3,43,-8,-8,-5,-2
1482546954747028,2,8,45,4,-8,-7,7,4
1482546954747028,-5,-7,-7,-5,13,5,-5,-8
1482546954761651,-2,3,-13,-6,-6,-10,-15,-3
1482546954761651,2,-2,-15,-19,13,-1,-9,-5
1482546954763599,3,-4,9,-13,-1,-2,2,1
1482546954763599,-3,12,43,45,14,5,5,3
1482546954783744,-1,0,-50,-18,-10,1,6,0
1482546954783744,-6,-31,-14,12,-3,-7,-6,-2
1482546954785744,-3,12,2,-41,17,4,0,-2
1482546954785744,5,2,25,17,-10,-4,0,-3
1482546954797793,-3,-4,-25,-17,10,3,3,1
1482546954797793,-2,4,2,-21,11,7,-1,0
1482546954806772,2,1,-34,28,-17,-8,-4,-2
1482546954806772,-5,-4,56,0,-24,-9,-8,-7
1482546954821927,-2,-1,52,22,27,4,2,0
1482546954821927,3,6,-41,14,10,8,6,5
1482546954822877,-1,1,12,-1,-9,-9,-7,-3
1482546954822877,4,2,-32,-37,-1,0,-1,1
1482546954845922,-5,-5,21,27,-32,-7,0,-3
1482546954845922,-1,-1,16,42,64,15,2,1
1482546954846890,2,2,4,-27,-15,-2,-1,1
1482546954846890,8,-1,-43,9,13,0,-2,1
1482546954858013,-26,-9,17,-6,-15,-5,-5,-7
1482546954858013,0,1,-29,0,-1,-1,-16,-5
1482546954866966,-1,-5,-26,-53,-4,3,37,17
1482546954866966,0,-10,-20,-14,-4,-1,1,-6
1482546954880898,9,3,4,3,-3,0,-2,0
1482546954880898,2,8,23,11,1,1,-1,2
1482546954887905,-6,-9,-5,14,1,-4,-14,-9
1482546954887905,1,6,-19,-10,-21,-9,-5,1
1482546954903918,1,1,-4,-42,-9,0,6,3
1482546954903918,0,5,18,9,-4,3,-1,-3
1482546954905890,-1,-13,-47,-36,2,-6,-9,-3
1482546954905890,-8,-6,46,48,5,-5,-3,-3
1482546954926937,6,8,7,-10,-5,1,-4,0
1482546954926937,0,-2,-1,-30,-6,-2,7,2
1482546954927885,1,5,12,34,4,4,-5,-5
1482546954927885,-7,-4,-25,20,-6,-7,-3,-2
1482546954941063,3,-3,-2,-62,6,1,2,0
1482546954941063,-5,-7,45,75,-19,-8,-2,-4
1482546954948067,0,0,-3,-38,-8,-3,-2,0
1482546954948067,-5,-2,-10,-2,34,12,0,-1
1482546954964101,7,3,32,21,21,7,4,3
1482546954964101,3,-6,-113,-50,-4,1,2,0
1482546954966085,-14,1,41,15,-8,-7,-29,-22
1482546954966085,4,3,3,24,-7,-3,19,13
1482546954986775,3,-3,5,-5,7,3,5,0
1482546954986775,-3,1,4,-26,-8,-1,-4,-5
1482546954987758,0,-9,11,16,-11,-3,8,2
1482546954987758,-1,0,-6,-9,1,2,-21,-14
1482546955000786,3,1,-21,11,11,3,8,4
1482546955000786,2,0,13,-8,-2,-2,-1,-1
1482546955007789,1,1,-12,7,-4,-3,-4,-1
1482546955007789,-2,-3,9,7,4,1,1,0
1482546955023838,-1,-3,-5,4,7,1,-5,-1
1482546955023838,-2,3,6,-13,-24,-8,-1,-1
1482546955025811,-2,0,17,16,7,-3,1,-1
1482546955025811,0,-1,-18,-2,4,0,3,2
1482546955046853,4,8,-31,-68,-8,2,3,3
1482546955046853,-4,-10,61,52,36,9,-2,-1
1482546955047798,-2,-7,18,-30,-25,-7,-3,-3
1482546955047798,-1,2,-9,6,-14,-12,-2,1
1482546955060386,-3,-8,-39,27,9,-1,-6,-6
1482546955060386,4,5,-13,-59,-13,-3,3,2
1482546955069435,-1,3,23,7,6,-1,-3,-1
1482546955069435,1,-3,-14,24,21,8,4,0
1482546955084018,-4,-18,-11,5,4,-2,-4,1
1482546955084018,-4,9,6,-8,-4,2,0,1
1482546955086016,2,8,7,18,-7,2,3,3
1482546955086016,0,4,55,4,-9,-4,-4,-2
1482546955107079,-1,0,-69,-25,-1,-1,-1,-1
1482546955107079,-1,-4,-29,-4,-7,-4,1,-1
1482546955108085,-1,-1,-4,6,3,1,-2,-1
1482546955108085,0,3,3,-5,4,1,-1,-1
1482546955121144,3,5,47,24,1,2,0,-1
1482546955121144,0,-1,-22,-6,-2,2,1,1
1482546955128126,2,6,12,13,4,-2,0,2
1482546955128126,-2,-4,-28,-21,-1,0,-1,0
1482546955145136,-5,-2,46,20,-9,-8,-2,-2
1482546955145136,-1,2,20,-35,-5,0,-1,-1
1482546955147108,4,1,-19,27,3,-2,-2,-1
1482546955147108,-14,-13,-30,-25,-8,-4,-4,-3
1482546955166684,-1,-1,-3,-2,-18,-7,-3,-2
1482546955166684,2,3,15,53,26,1,2,2
1482546955168198,-1,-4,-9,-19,-14,1,-1,0
1482546955168198,3,3,12,-22,-10,-1,0,2
1482546955181248,-3,-5,-27,-4,1,-1,-1,-1
1482546955181248,1,0,13,23,-5,0,1,0
1482546955187265,-1,-2,-25,20,-1,-2,-1,-2
1482546955187265,-2,-6,12,-18,-6,-5,-1,-1
1482546955204279,-4,2,46,-3,-2,3,1,-2
1482546955204279,0,-3,-39,-12,-5,-5,-3,-2
1482546955205262,-5,-10,5,3,5,0,-1,-2
1482546955205262,5,6,-5,11,1,2,0,1
1482546955226334,1,1,24,11,6,2,0,1
1482546955226334,-4,1,-1,-8,-3,-1,-2,-1
1482546955228282,2,3,-3,-22,3,3,3,-2
1482546955228282,-1,2,-1,42,3,0,0,-6
1482546955240304,2,-1,27,-4,-5,-3,-3,16
1482546955240304,1,9,10,-12,1,2,1,0
1482546955249322,0,-2,6,23,3,7,1,3
1482546955249322,-3,-5,-9,3,-11,-11,-6,-9
1482546955265894,1,9,-14,-25,-5,-4,2,-6
1482546955265894,-2,-2,-8,-7,7,6,2,3
1482546955267366,0,4,10,-11,5,3,0,-1
1482546955267366,0,0,3,4,-6,-1,-2,-2
1482546955286543,-3,-4,-10,15,15,3,0,-3
1482546955286543,-1,-5,0,-18,-5,0,1,3
1482546955288515,0,0,-7,-7,2,-3,-1,-2
1482546955288515,0,-3,-4,3,-2,-2,-2,1
1482546955300556,-2,-2,-10,1,-4,-2,-2,-2
1482546955300556,-1,-2,-2,4,0,0,-1,-4
1482546955316536,0,2,28,-4,-3,-1,0,1
1482546955316536,-1,-2,-19,-1,1,-1,-2,2
1482546955324545,-1,-2,-19,-8,-11,-1,-1,-5
1482546955324545,-1,-3,-9,-21,13,1,4,2
1482546955325517,-1,0,-3,2,-3,-1,-1,2
1482546955325517,0,-1,2,-14,2,-2,-2,1
1482546955346584,2,3,3,30,3,4,2,-2
1482546955346584,3,-3,8,-3,-16,-3,-4,-2
1482546955348551,-6,-5,-4,-18,-6,-6,-4,1
1482546955348551,1,2,14,3,7,1,0,-1
1482546955360717,0,2,-16,12,-2,-3,-1,-1
1482546955360717,3,7,22,8,-1,2,1,-2
1482546955369223,-1,-5,-44,-7,1,0,-1,-1
1482546955369223,1,5,3,4,0,0,-1,2
1482546955384363,1,0,30,5,3,-1,-3,-1
1482546955384363,1,-4,-42,-15,-6,-6,-4,-1
1482546955385347,2,-1,9,7,3,-1,0,-4
1482546955385347,-6,-2,-18,-12,-2,1,1,0
1482546955406375,-8,-4,-25,11,4,0,1,-2
1482546955406375,-1,-1,17,3,-4,-2,-1,-1
1482546955408377,-1,-1,-13,9,-6,0,-2,0
1482546955408377,7,1,-6,15,8,3,1,3
1482546955420385,4,2,26,-45,-3,2,1,-1
1482546955420385,-9,-16,11,28,-2,-6,-4,-4
1482546955429378,1,11,-2,-16,-5,-1,0,1
1482546955429378,-2,-6,9,4,3,2,-1,-2
1482546955444479,-4,-3,-13,4,0,-1,-3,-1
1482546955444479,1,5,-11,-1,-2,-2,-1,-1
1482546955445477,0,-4,-3,0,6,2,2,2
1482546955445477,-1,-1,-3,-24,-5,2,2,-2
1482546955467039,1,-2,-30,-6,-7,-3,-3,-2
1482546955467039,-1,-2,3,-3,-4,-1,-14,-5
1482546955468526,-2,1,9,8,-3,-2,21,5
1482546955468526,-1,-5,-6,0,3,6,3,2
1482546955480687,1,-1,-2,-3,3,-2,2,-1
1482546955480687,-3,3,6,-6,-4,-1,-2,-2
1482546955488777,-2,2,-5,-10,-4,-4,-9,-3
1482546955488777,-2,1,-6,-3,-3,-1,-3,-2
1482546955503797,0,0,-3,-2,2,3,-1,1
1482546955503797,2,4,-3,2,3,1,3,1
1482546955505785,-3,-17,-2,11,7,0,-6,-3
1482546955505785,-1,-9,1,-9,-10,-9,0,2
1482546955526827,-2,0,1,-44,-10,-3,-5,-3
1482546955526827,0,0,-3,20,15,3,4,3
1482546955527776,1,3,8,-5,-1,0,-3,-1
1482546955527776,2,4,-9,2,9,1,3,1
1482546955539835,-2,-4,18,31,-5,-5,-1,-2
1482546955539835,-2,-1,6,-10,-11,-3,1,-3
1482546955548819,0,-1,3,-6,-6,-6,-5,-1
1482546955548819,0,-1,2,22,2,2,1,0
1482546955564420,-1,1,0,-10,7,6,3,2
1482546955564420,-1,1,3,-2,-1,-5,2,1
1482546955565867,1,-1,-10,8,2,1,-1,-6
1482546955565867,-5,4,12,-10,-5,-2,-3,-2
1482546955587028,0,-4,-3,5,-5,-6,-2,-2
1482546955587028,-5,-7,-16,10,1,0,-3,-1
1482546955588029,-2,-5,-4,-24,-1,-3,-4,-1
1482546955588029,0,0,-22,-10,-1,-1,-7,-6
1482546955600037,2,4,23,36,3,4,7,4
1482546955600037,-4,-6,10,-36,-6,-2,11,3
1482546955609017,-2,0,23,22,0,1,-3,0
1482546955609017,-2,-2,-1,-15,-9,-5,-9,-5
1482546955624083,-1,-3,-29,-15,3,1,-2,0
1482546955624083,2,1,-9,-3,-3,0,-6,-3
1482546955626044,0,3,9,-1,0,1,-2,-1
1482546955626044,-1,3,20,3,1,2,6,0
1482546955646152,-3,-1,3,6,-3,-4,-7,-3
1482546955646152,1,-2,-20,-3,-3,-2,-1,-1
1482546955648097,-1,-2,-7,-7,-2,-2,2,-2
1482546955648097,0,-5,6,3,6,2,3,1
1482546955660224,-1,-1,4,16,8,2,4,3
1482546955660224,-1,0,2,-4,-3,-2,0,-2
1482546955669690,-1,2,-4,19,-10,-11,-7,-2
1482546955669690,-3,-6,11,-22,-4,-1,-10,-5
1482546955684312,-3,-4,-16,-2,-4,1,-11,-11
1482546955684312,3,0,1,8,10,7,19,10
1482546955685293,2,1,-1,-5,1,2,-2,0
1482546955685293,-5,-3,2,-4,-10,-10,2,1
1482546955706322,-3,-3,6,0,-5,-6,-19,-7
1482546955706322,-2,-2,1,-3,-1,1,-6,-2
1482546955708309,-1,1,-2,19,-1,-1,5,-1
1482546955708309,4,1,-8,-2,2,3,-3,-2
1482546955720318,0,-2,1,2,2,2,10,1
1482546955720318,-1,0,-1,4,-4,-3,-5,-3
1482546955729339,1,-1,-3,-2,4,3,2,4
1482546955729339,-2,-7,-53,-28,-5,-3,-3,-3
1482546955744387,1,-1,-35,-7,-1,-3,2,2
1482546955744387,-3,-1,54,18,-2,-2,1,-1
1482546955746335,-1,1,6,16,0,1,-8,-5
1482546955746335,2,1,2,-23,2,1,3,-1
1482546955766915,-2,-2,2,-7,-4,-3,2,0
1482546955766915,1,1,-29,-8,-3,-3,-6,-6
1482546955768423,-2,-1,0,-9,5,3,4,5
1482546955768423,2,3,13,25,4,1,-1,2
1482546955780527,-1,-2,-7,-32,-4,-7,2,-1
1482546955780527,1,0,0,-2,1,-1,-9,-4
1482546955789540,-1,0,16,5,-2,3,1,-1
1482546955789540,-5,-4,-7,-1,-5,-5,-5,-2
1482546955803549,1,-2,11,8,-2,0,7,7
1482546955803549,-3,-2,2,1,-7,-6,-11,-5
1482546955805545,3,2,7,-12,-5,-5,6,-1
1482546955805545,3,-3,-20,23,2,-1,3,2
1482546955826566,5,4,-1,-15,11,8,5,3
1482546955826566,-3,-2,73,10,1,1,-1,0
1482546955828563,-11,-12,-47,-25,-5,-1,-3,-2
1482546955828563,2,0,30,14,-4,-3,-2,-4
1482546955850587,-2,-2,-8,9,-7,-4,-10,-5
1482546955850587,3,4,-12,-7,-1,0,-6,0
1482546955852568,4,4,8,11,2,4,5,2
1482546955852568,-3,1,12,11,-3,-1,-1,0
1482546955864116,-3,-2,-14,1,4,2,7,2
1482546955864116,-3,-3,2,-7,-3,-4,-7,-4
1482546955866099,-2,0,9,7,-2,-3,-5,-2
1482546955866099,-3,-3,-7,-4,0,1,-2,-1
1482546955886809,-1,0,12,1,2,4,4,3
1482546955886809,-1,-3,-26,-2,-1,-3,3,-1
1482546955887817,-1,-2,-14,-14,1,-3,0,0
1482546955887817,2,2,15,1,-2,-1,6,1
1482546955908882,-2,-3,5,1,-7,-8,-15,-8
1482546955908882,-1,-5,-29,4,3,9,13,6
1482546955910830,-2,-3,0,-3,2,0,-5,-6
1482546955910830,-1,7,5,-4,2,2,-9,3
1482546955923835,-3,-2,13,8,-5,-1,5,3
1482546955923835,4,7,-9,1,-9,-8,7,4
1482546955925836,-6,-23,0,-8,-2,2,-4,-5
1482546955925836,-2,-4,-15,-9,0,-2,3,-1
1482546955946911,0,3,11,9,1,-1,-14,-4
1482546955946911,-1,2,-5,-5,-1,-2,-3,-2
1482546955947852,3,13,14,0,1,0,9,-2
1482546955947852,-1,0,-6,0,1,-1,1,4
1482546955970566,3,-3,-6,-1,3,3,-2,1
1482546955970566,-2,1,8,1,2,-2,23,3
1482546955971554,0,3,-22,0,-1,-1,-9,2
1482546955971554,-3,-9,3,-4,-5,-2,-3,-6
1482546955983676,-2,4,2,-1,0,-3,1,-3
1482546955983676,-1,-4,1,3,-2,0,-5,0
1482546955985670,-1,2,-2,-6,-3,-1,-5,-3
1482546955985670,1,3,-1,2,0,0,6,-1
1482546956006782,0,1,0,4,2,2,4,4
1482546956006782,-2,-3,-10,-6,-3,3,-10,-6
1482546956008732,-1,-3,-6,-2,4,-1,2,4
1482546956008732,1,1,21,4,-7,-2,-6,-2
1482546956028798,-1,-5,-10,3,6,1,-17,-4
1482546956028798,-3,-5,-15,-1,-4,-3,18,5
1482546956030772,1,3,4,-3,-4,-5,1,1
1482546956030772,-1,2,-4,-3,2,4,5,0
1482546956043753,-2,-1,6,-1,-2,-1,6,1
1482546956043753,0,-2,-13,-4,7,3,-24,-7
1482546956050759,0,1,7,2,-5,-6,23,5
1482546956050759,-1,1,-1,8,1,1,-11,0
1482546956066850,0,-3,-11,3,-3,-3,0,-2
1482546956066850,1,1,15,7,6,2,-8,-1
1482546956068335,0,1,1,-13,-2,0,-4,-3
1482546956068335,1,2,20,7,2,0,0,-2
1482546956089501,-4,1,-36,-12,-4,-3,4,-1
1482546956089501,0,2,-1,0,1,-2,-3,-2
1482546956090529,1,6,-13,1,1,1,-2,-2
1482546956090529,-4,-14,29,-4,-2,-2,2,0
1482546956103568,2,-2,-9,13,0,-1,-3,1
1482546956103568,-1,-1,-4,-11,-3,-3,2,-2
1482546956110545,-1,2,25,1,0,0,-4,-1
1482546956110545,2,0,-40,-8,1,0,-12,0
1482546956126586,0,1,24,-5,-1,2,29,6
1482546956126586,-2,-3,-27,-7,-1,0,-6,-2
1482546956128532,-1,-5,-7,1,1,1,-2,-2
1482546956128532,-1,1,-5,0,3,0,-1,-3
1482546956149574,-2,-3,3,-5,-1,-3,-5,-4
1482546956149574,-1,3,9,1,-14,-7,-2,-4
1482546956150573,-1,-3,-1,22,18,-1,-1,3
1482546956150573,0,0,4,-29,-8,-4,5,-1
1482546956163617,1,2,-46,-8,8,3,-1,1
1482546956163617,-9,-19,53,28,-10,-3,-3,-2
1482546956170653,-1,-3,-25,-24,-8,-2,-8,-5
1482546956170653,-2,1,0,3,1,-3,1,-1
1482546956186768,1,6,14,1,-2,-3,-4,0
1482546956186768,2,7,-4,-9,6,4,4,2
1482546956187713,-1,-5,0,7,-1,2,-18,-2
1482546956187713,1,2,-3,9,2,7,40,10
1482546956208784,-1,-2,10,-20,-2,-2,-5,-3
1482546956208784,-2,-2,-14,24,-1,-8,-13,-1
1482546956210730,10,5,12,-53,-13,3,-3,3
1482546956210730,-15,-4,-16,7,5,-3,-8,-3
1482546956223755,-6,-7,11,-6,-6,-1,-2,-3
1482546956223755,-1,-1,-7,-6,4,2,3,-2
1482546956229760,-4,-2,0,12,-2,-4,1,-3
1482546956229760,5,0,3,2,5,8,-3,-1
1482546956245809,-1,-3,1,4,-2,-6,4,-3
1482546956245809,-1,2,-1,-5,-1,0,-3,-1
1482546956253821,-1,1,7,4,0,0,10,3
1482546956253821,1,-4,-21,-5,-3,1,-3,-2
1482546956269347,3,5,7,14,1,2,-18,-1
1482546956269347,-4,-12,-8,-6,-4,-6,18,-1
1482546956270832,-2,-1,-6,-14,-6,-4,-1,-2
1482546956270832,-2,-1,7,0,0,-5,-4,-1
1482546956283912,-2,-4,1,1,-1,1,6,1
1482546956283912,0,8,-2,-5,-1,2,-15,-4
1482546956289971,-1,5,-1,3,4,0,-18,-5
1482546956289971,-1,-1,-5,2,-3,-2,15,2
1482546956306968,-2,-5,22,-18,-8,-4,5,-1
1482546956306968,2,-1,-16,-7,3,1,7,1
1482546956307928,-4,-4,-3,10,-1,-2,6,2
1482546956307928,4,4,-7,6,-2,-2,-16,0
1482546956328997,0,-1,3,-26,0,3,0,-3
1482546956328997,1,2,8,1,-1,1,1,0
1482546956330971,-2,-8,-15,-4,-2,-1,-1,-1
1482546956330971,0,2,11,-4,-8,-1,-2,0
1482546956343009,-3,-6,-5,36,8,-3,5,-2
1482546956343009,0,11,20,-24,0,5,-3,-3
1482546956359553,-3,-12,-45,-8,-7,-13,-10,-5
1482546956359553,-2,-18,8,12,-5,-2,-2,2
1482546956367062,-4,0,-16,-8,-2,2,11,0
1482546956367062,0,5,1,2,2,2,2,0
1482546956368547,1,6,28,18,5,5,2,0
1482546956368547,2,2,-13,-7,-6,-3,-5,-4
1482546956389147,2,-2,2,20,3,1,-2,2
1482546956389147,0,-4,-18,-13,9,4,4,4
1482546956391145,-5,1,16,21,-16,-5,-5,-3
1482546956391145,0,0,-18,-9,4,-3,-9,-2
1482546956403170,0,1,8,1,-10,-8,-8,0
1482546956403170,-3,-6,-11,1,23,6,-2,0
1482546956412145,11,16,22,-10,-1,0,-1,-5
1482546956412145,-18,-26,-18,9,-8,-4,0,-2
1482546956426212,3,9,11,-6,-14,-3,-4,-4
1482546956426212,-12,-5,-3,1,-10,-4,1,2
1482546956428185,-5,-4,0,9,5,2,9,2
1482546956428185,6,9,9,-13,0,0,0,-2
1482546956449215,0,1,-9,-5,5,0,-2,0
1482546956449215,3,0,-1,6,-4,-1,0,-2
1482546956455307,1,3,5,-1,6,2,-1,1
1482546956455307,2,4,-4,3,2,2,0,-2
1482546956462873,0,-4,-9,-10,4,0,-2,2
1482546956462873,3,1,22,8,-8,-3,-5,-2
1482546956471838,-2,-5,7,17,4,0,3,-1
1482546956471838,5,5,-37,-29,-1,-6,-3,3
1482546956485857,-8,-2,6,23,-10,-4,-4,-5
1482546956485857,1,-3,-3,-19,4,0,2,-2
1482546956492863,0,-6,8,-7,7,8,1,0
1482546956492863,-3,0,22,12,5,1,-3,4
1482546956508873,3,-2,-15,10,0,-1,-7,-2
1482546956508873,-5,-2,11,16,-2,-5,-1,0
1482546956510862,-4,0,0,-10,-21,-3,7,-4
1482546956510862,2,1,-22,27,18,1,-1,-11
1482546956522883,7,2,10,-13,2,4,3,14
1482546956522883,-1,10,78,9,-10,-8,-20,-17
1482546956531877,-12,-19,-64,-21,25,0,3,0
1482546956531877,-5,-10,-6,-1,-15,-5,-4,0
1482546956546941,-6,-1,-16,-2,0,-1,3,1
1482546956546941,8,2,17,22,5,6,8,0
1482546956547905,2,2,9,-23,-7,1,-3,4
1482546956547905,-5,3,5,-8,-7,-4,1,-2
1482546956569434,-2,-3,18,5,6,5,-2,-7
1482546956569434,4,-9,-21,-20,-2,-2,3,7
1482546956570937,3,4,52,-4,-43,-14,-2,-1
1482546956570937,-5,0,-35,41,56,16,15,-5
1482546956599575,1,-3,-22,-60,-11,-6,-17,-4
1482546956599575,4,3,19,44,16,7,0,14
1482546956599575,0,0,11,-19,-10,1,0,-2
1482546956599575,9,9,28,11,-16,-3,2,10
1482546956605605,-2,10,30,36,-42,-3,7,-11
1482546956605605,-20,-18,-44,-64,51,6,6,5
1482546956606551,-27,-29,-74,-3,-7,-6,-8,-10
1482546956606551,-8,8,18,-20,-6,-5,-14,-10
1482546956628624,1,3,-11,-17,-7,-3,-4,0
1482546956628624,1,4,-2,2,-24,-1,2,6
1482546956629567,6,9,36,57,25,8,7,1
1482546956629567,-6,-13,-42,-59,-28,-6,0,-4
1482546956650639,-9,-7,1,10,18,-4,-11,-11
1482546956650639,7,7,-16,4,-23,-11,-1,10
1482546956651583,1,4,32,-3,-12,-1,0,5
1482546956651583,-1,2,45,95,32,3,3,-3
1482546956666175,10,3,29,0,-6,-6,-6,1
1482546956666175,-9,-24,-79,-74,4,-3,-14,-27
1482546956667169,6,3,24,29,17,-7,-10,11
1482546956667169,0,-4,-43,-25,-28,-3,-10,2
1482546956688796,-25,-22,-44,46,20,1,7,6
1482546956688796,4,12,38,-46,-42,-5,6,-1
1482546956688796,5,-2,-10,15,23,10,2,-3
1482546956688796,17,13,5,-34,-6,4,15,1
1482546956710837,-24,-28,-11,-28,9,-7,-8,-4
1482546956710837,16,8,8,50,-14,-3,-17,-30
1482546956711788,2,6,19,-13,69,18,14,1
1482546956711788,-12,1,33,-8,-7,-6,-13,7
1482546956725869,22,15,3,61,-22,19,95,54
1482546956725869,-7,-12,-17,6,21,-12,-33,6
1482546956726864,-26,-2,-10,-54,-35,-38,-87,10
1482546956726864,15,22,14,12,-10,-3,-23,-10
1482546956747879,6,6,40,-21,2,1,-7,-7
1482546956747879,-21,-16,-18,18,-24,3,36,2
1482546956748885,-7,-17,31,58,19,12,32,4
1482546956748885,17,0,-37,-37,4,9,5,7
1482546956770959,-4,-1,21,22,18,-7,-20,-6
1482546956770959,-15,0,-42,-3,-2,2,9,11
1482546956771948,-1,-7,-42,-89,-25,-1,5,-17
1482546956771948,-1,3,58,15,-3,7,14,-14
1482546956786119,24,19,28,-21,-44,-9,-20,-17
1482546956786119,-9,4,-41,22,71,2,-22,10
1482546956787113,-3,8,36,104,-24,-6,15,-5
1482546956787113,2,-16,-39,-85,13,7,27,20
1482546956808139,-1,-9,-18,-24,-33,-16,-18,-28
1482546956808139,3,-5,6,40,-6,0,8,-1
1482546956809136,21,12,48,-2,-43,3,22,3
1482546956809136,-4,-5,-70,36,32,9,5,12
1482546956832196,-47,-27,-46,-9,8,-17,-30,-26
1482546956832196,14,18,117,-30,-27,7,3,7
1482546956833197,-3,-17,-80,-77,13,-17,-23,8
1482546956833197,6,14,28,4,-5,-10,-4,-12
1482546956845260,7,2,1,41,22,12,0,-3
1482546956845260,8,-1,-21,43,-3,-3,3,1
1482546956853266,10,19,12,4,1,19,26,6
1482546956853266,-9,-6,23,-9,-25,-9,-3,-1
1482546956868811,-4,-1,9,-3,12,3,-7,-17
1482546956868811,-1,-10,-31,20,16,-6,-19,15
1482546956869287,10,15,-8,-21,-23,-10,-21,-7
1482546956869287,-21,-20,-44,6,12,-4,13,-2
1482546956891148,15,16,38,-8,-22,6,17,5
1482546956891148,9,1,-23,-65,17,5,13,-7
1482546956892100,2,-4,-33,28,0,5,-2,-7
1482546956892100,-9,-2,23,-14,-18,-1,-4,-6
1482546956905131,-2,2,29,-9,35,6,-8,19
1482546956905131,0,-5,-33,-13,-23,-10,-11,-15
1482546956913145,-4,-3,-52,11,-4,-10,-2,0
1482546956913145,9,3,11,4,-4,2,2,13
1482546956928175,5,-5,-14,-3,0,-2,-5,-2
1482546956928175,-5,6,17,9,-1,-3,-3,11
1482546956929151,-5,-4,5,-1,9,5,17,-11
1482546956929151,1,0,7,13,-17,-10,-122,-44
1482546956951287,2,-4,-67,9,19,16,106,80
1482546956951287,-2,-2,23,8,-10,-4,-74,-17
1482546956951287,-2,3,18,-20,1,8,-39,3
1482546956951287,10,6,-13,28,15,7,3,2
1482546956966002,-26,-17,-14,-11,-11,-17,-42,-41
1482546956966002,-21,-1,23,-14,-10,-1,27,21
1482546956966950,0,5,41,42,15,-5,-113,-47
1482546956966950,-8,-11,33,-28,1,-3,112,46
1482546956988152,19,8,-19,-18,2,7,-18,-28
1482546956988152,-3,0,-30,2,-18,2,79,26
1482546956989103,12,5,7,-4,6,6,93,14
1482546956989103,-4,2,46,50,6,0,-87,-8
1482546957011118,3,4,-7,-41,-4,5,41,5
1482546957011118,3,-5,6,-16,-6,-6,-71,-18
1482546957011118,-3,-4,-6,15,5,-2,17,-13
1482546957011118,-2,-1,-2,-2,-1,-2,-21,-1
1482546957025151,5,-4,3,-20,-2,-3,-15,8
1482546957025151,3,6,17,19,0,2,6,-11
1482546957033187,-5,-5,-13,0,1,1,0,9
1482546957033187,-8,-6,5,-12,-9,-6,-27,-5
1482546957048197,3,5,-8,-9,5,-7,-128,-32
1482546957048197,2,-1,-6,7,1,11,108,26
1482546957049170,-6,-3,-8,-10,-3,-4,-46,-19
1482546957049170,-4,-5,4,0,0,-1,73,25
1482546957071234,-1,3,3,14,-1,-4,-59,-24
1482546957071234,5,-1,-11,6,-1,-1,40,18
1482546957071730,-1,-3,-1,-21,1,-2,-21,-5
1482546957071730,-3,1,-5,2,4,2,-40,-10
1482546957085379,-1,-1,1,12,-4,1,98,29
1482546957085379,1,2,12,0,-5,-4,-49,-23
1482546957093386,-5,-3,4,-2,1,0,24,22
1482546957093386,1,2,21,12,-1,-3,-17,-21
1482546957108395,-3,-2,-38,-15,-6,0,-3,5
1482546957108395,5,6,7,12,1,1,-16,-12
1482546957109385,0,2,25,-24,3,0,14,5
1482546957109385,-6,-17,-32,-4,-8,-4,3,-10
1482546957130411,1,6,16,3,1,-1,-11,2
1482546957130411,0,-6,-27,-2,1,0,-2,-3
1482546957131409,-2,0,-20,3,-2,-3,-9,-6
1482546957131409,2,4,-7,-6,1,1,-15,-10
1482546957145421,1,2,48,24,4,7,65,29
1482546957145421,2,-1,-15,-16,-11,-2,-22,-11
1482546957153428,-3,-3,-6,8,4,1,13,4
1482546957153428,-3,-3,-2,-8,0,-4,-3,-9
1482546957168455,1,1,-5,6,-1,1,-10,0
1482546957168455,1,0,14,2,-3,-3,-15,-7
1482546957169443,3,1,2,6,-3,-2,4,5
1482546957169443,-1,2,10,-4,-3,2,21,-3
1482546957190583,-4,-4,-3,11,1,-2,-31,-8
1482546957190583,-2,-1,9,-4,7,3,5,-1
1482546957191580,-3,-4,-6,-6,-1,1,0,1
1482546957191580,-1,1,-7,0,-3,-4,9,3
1482546957205582,1,-3,5,-2,-4,-3,-3,-2
1482546957205582,0,1,1,2,4,0,-16,-6
1482546957213600,-3,-3,-15,-2,-6,-1,6,2
1482546957213600,0,0,5,10,-1,-3,2,-1
1482546957228611,0,-4,-11,-4,3,2,-1,-2
1482546957228611,0,5,16,0,1,-4,-5,-3
1482546957229607,-2,-4,-22,-3,-3,-3,-3,0
1482546957229607,0,7,19,-4,-3,1,6,1
1482546957250627,1,-3,-19,0,5,0,-2,0
1482546957250627,-1,-5,-4,2,-2,-3,-10,-2
1482546957251638,0,-1,8,1,0,3,10,9
1482546957251638,0,-2,-5,-3,-4,-3,1,-3
1482546957275846,-3,2,17,1,-2,-2,-2,-4
1482546957275846,0,0,-6,0,0,0,-7,-3
1482546957275846,0,1,3,-3,1,-1,-1,-1
1482546957275846,3,2,-12,-4,2,3,8,4
1482546957288855,-2,3,42,-3,-2,-1,-1,-1
1482546957288855,-11,-13,13,11,-4,-3,-6,-8
1482546957288855,-1,1,-6,11,-5,-3,-2,0
1482546957288855,0,2,-6,-37,2,0,4,1
1482546957310911,6,8,39,10,2,-2,-3,2
1482546957310911,3,0,-65,-11,1,1,-3,-1
1482546957311862,-4,-14,-15,2,-3,-3,-2,-1
1482546957311862,2,22,54,5,2,0,0,-2
1482546957324922,-4,-8,-22,49,-7,-5,-3,-3
1482546957324922,1,4,25,-14,0,1,2,0
1482546957333873,-1,-1,-6,14,1,0,-2,-2
1482546957333873,-2,-8,-30,-2,-2,-1,0,2
1482546957347889,-1,-1,12,-1,4,2,-1,-3
1482546957347889,-1,-4,-35,-5,-4,0,-1,0
1482546957348883,2,5,10,8,3,2,1,1
1482546957348883,-2,-14,16,12,-1,-1,1,-2
1482546957370978,4,11,25,-12,-1,-3,-1,1
1482546957370978,-9,-10,-31,-11,-4,-4,-4,-3
1482546957371969,-1,7,12,-11,0,1,-1,-1
1482546957371969,0,4,15,7,-6,-5,0,1
1482546957394322,-2,3,-60,-11,1,-5,-3,-4
1482546957394322,-3,-10,-13,13,5,5,-1,-2
1482546957395266,1,1,-12,0,19,4,3,0
1482546957395266,-6,-5,8,5,-6,-2,-2,-3
1482546957408333,1,-2,-6,-25,1,2,-1,2
1482546957408333,3,11,48,43,-10,-5,-2,1
1482546957409277,-3,-1,-4,-43,-8,-4,-2,-2
1482546957409277,-2,-11,-62,-10,-6,-3,-3,-1
1482546957431322,-2,-7,11,11,-3,-2,-5,-4
1482546957431322,1,2,6,-2,2,1,0,-2
1482546957431322,2,1,16,11,-3,0,1,0
1482546957431322,1,-3,-14,-6,5,1,0,-2
1482546957454364,-1,-1,-13,-16,-7,0,-2,-1
1482546957454364,0,-7,-8,-12,-3,-5,-1,0
1482546957455329,0,-2,6,1,0,-2,-1,-1
1482546957455329,-2,0,-13,1,-1,-2,2,0
1482546957468841,-6,-13,-14,1,0,0,-1,-1
1482546957468841,4,14,34,-7,-1,0,-1,0
1482546957469328,-4,-5,-9,0,-6,-3,-4,-3
1482546957469328,0,-3,17,14,-1,0,-1,-2
1482546957490534,2,3,-2,-8,3,2,4,1
1482546957490534,-6,-4,0,-9,-1,-3,-1,0
1482546957491486,-1,1,-8,-5,-7,-5,-4,-1
1482546957491486,10,11,19,5,0,2,0,-2
1482546957514526,-2,7,23,34,-3,0,-2,-3
1482546957514526,5,-7,-29,-15,2,2,-1,0
1482546957514526,0,-15,6,24,-2,-2,1,-2
1482546957514526,11,0,2,-25,10,3,2,2
1482546957528532,-14,2,8,-1,-1,-3,-2,-2
1482546957528532,1,2,-15,9,2,-6,-2,-2
1482546957529541,1,6,10,0,-5,3,1,1
1482546957529541,1,1,-3,9,-3,0,-1,1
1482546957552577,6,4,-4,-15,-2,1,-1,-1
1482546957552577,-4,-6,3,2,2,0,-1,-1
1482546957553530,-2,-2,-17,-3,-2,-2,-2,0
1482546957553530,-6,-4,12,11,-1,0,1,-1
1482546957574608,17,0,-20,-15,0,2,1,1
1482546957574608,-18,1,-7,-19,-10,-3,-1,0
1482546957575869,-1,11,26,11,-2,-2,-3,-5
1482546957575869,-10,-18,-32,-11,-3,-1,1,-3
1482546957587926,6,3,21,-1,-1,-1,-5,0
1482546957587926,13,3,-2,0,2,2,1,1
1482546957588902,-3,-13,-9,-21,-2,-2,-6,-2
1482546957588902,-28,2,6,15,-3,-6,-16,-15
1482546957610892,-5,-5,-6,2,2,1,19,3
1482546957610892,11,6,25,0,2,3,0,-1
1482546957611892,4,-7,-25,-22,-7,-4,1,11
1482546957611892,-16,1,-9,3,-4,-4,-5,-5
1482546957633078,-6,4,7,-10,0,-2,-6,-7
1482546957633078,-7,-1,13,9,3,1,0,-2
1482546957634028,13,19,6,12,2,3,18,1
1482546957634028,-5,-16,0,-13,-7,-5,-22,-2
1482546957648090,-6,-5,11,10,-1,-4,-5,-1
1482546957648090,1,-9,-31,-23,-5,-3,1,0
1482546957649061,-1,-3,29,-8,-1,2,1,1
1482546957649061,11,4,-13,-2,-1,-1,6,4
1482546957671126,-1,5,27,5,0,-4,-7,-1
1482546957671126,1,4,21,25,0,0,3,0
1482546957672112,-3,0,-29,-11,1,-1,-4,-5
1482546957672112,-15,-10,-12,-7,1,1,-14,-11
1482546957693798,5,-15,-19,2,-4,-6,-45,-46
1482546957693798,3,1,28,3,0,4,28,4
1482546957693798,-6,4,-4,7,-2,-5,9,10
1482546957693798,8,13,5,4,2,11,72,50
1482546957708809,-2,-9,-26,-7,1,-2,-19,-4
1482546957708809,-3,5,3,1,0,-2,-22,-2
1482546957708809,1,2,9,7,2,0,18,9
1482546957708809,1,-6,0,-2,-1,-5,-29,-11
1482546957730797,-6,-1,-13,1,-8,-1,-8,-5
1482546957730797,-3,-8,-3,-36,-2,4,31,7
1482546957731794,-3,5,-1,16,0,2,31,24
1482546957731794,11,-8,6,-7,12,2,-19,4
1482546957752981,0,5,-9,2,-3,4,49,29
1482546957752981,-1,4,18,18,-18,-5,-32,-25
1482546957753928,-3,-4,-2,-10,15,3,1,-8
1482546957753928,2,-3,2,4,1,-2,15,5
1482546957768527,-11,3,1,-15,-2,-7,-30,-19
1482546957768527,4,10,6,8,-3,-3,-17,-4
1482546957769520,0,14,27,-2,-6,-8,-40,-32
1482546957769520,7,-4,-17,0,1,9,46,24
1482546957791268,17,-4,-9,-8,-2,1,24,27
1482546957791268,-23,-3,0,0,1,-3,12,4
1482546957791268,-6,-10,-5,2,2,-2,-49,-25
1482546957791268,-18,-4,20,-1,-5,-6,-45,-39
1482546957813301,-6,30,-10,5,-4,-5,10,-6
1482546957813301,12,-33,-3,-1,7,1,23,24
1482546957814281,20,-3,-6,2,-6,-3,43,19
1482546957814281,-17,8,-11,11,2,4,-17,-11
1482546957828308,-3,-16,6,-12,0,0,-29,-3
1482546957828308,-5,15,-6,-15,-4,-7,40,31
1482546957829292,-6,-12,-11,4,-9,-7,-28,-8
1482546957829292,25,11,13,1,9,5,96,45
1482546957850370,-21,-11,-18,-1,-5,-2,-13,-6
1482546957850370,-12,-3,-10,0,6,4,-56,-36
1482546957851371,-4,-15,-5,0,0,3,4,2
1482546957851371,13,0,-2,-17,-12,-7,-32,-10
1482546957873411,3,11,7,-3,10,5,7,6
1482546957873411,11,-5,-7,9,1,0,15,9
1482546957874396,-7,1,7,-1,-2,0,-29,-17
1482546957874396,1,-7,6,11,0,-6,-16,-10
1482546957888254,5,-5,-5,-5,-4,-6,23,12
1482546957888254,0,8,-3,-5,-2,0,-3,33
1482546957889243,-12,-29,30,3,6,6,-45,-26
1482546957889243,-3,24,32,-2,-6,-5,-14,-18
1482546957912287,27,-2,-3,6,3,8,16,4
1482546957912287,2,14,9,-3,-3,-7,-25,10
1482546957913285,-1,31,-20,1,-2,-3,9,13
1482546957913285,-10,-26,-9,2,-2,-3,-51,-19
1482546957933426,-17,-15,19,-2,-1,-5,-37,-8
1482546957933426,27,-10,-7,7,-1,1,14,-9
1482546957934399,-7,3,-10,0,0,3,12,17
1482546957934399,13,-1,-21,-1,0,-6,-20,-21
1482546957948441,-3,15,-8,-3,4,6,59,18
1482546957948441,0,0,-9,3,-11,-4,-24,-29
1482546957949382,0,-4,-8,-24,-1,4,14,-3
1482546957949382,0,8,5,34,4,-3,-89,-72
1482546957970958,-4,-8,-1,1,1,6,28,41
1482546957970958,-5,11,-5,3,3,-2,-45,-39
1482546957971974,11,2,4,1,-2,-1,-50,2
1482546957971974,1,2,-3,-5,-6,-1,19,-10
1482546957993171,-7,-1,-5,5,6,2,-83,-70
1482546957993171,0,17,1,-8,-6,-14,-20,3
1482546957994117,-3,-22,7,4,-4,0,127,46
1482546957994117,-17,-8,-38,-15,6,7,-11,11
1482546958008158,-2,-28,-2,-3,-9,-18,-34,-19
1482546958008158,-4,-6,2,-3,0,3,-17,5
1482546958009133,11,10,-9,-1,-4,0,16,-16
1482546958009133,6,15,5,-5,-3,1,39,25
1482546958031164,-3,-13,-1,-2,-1,3,31,19
1482546958031164,0,19,27,8,6,6,29,2
1482546958031164,-14,-7,9,9,7,-1,-19,4
1482546958031164,3,1,-7,-22,-16,-3,17,17
1482546958053214,-16,0,0,11,7,-1,-3,-3
1482546958053214,-2,6,-12,-16,-1,-6,21,6
1482546958054160,-8,-10,-7,9,6,2,-92,-8
1482546958054160,9,-8,8,7,0,12,91,50
1482546958068734,10,13,-10,-15,-2,-4,-50,-20
1482546958068734,-17,-31,-2,-4,3,0,-60,-39
1482546958069231,-10,8,7,25,-11,-5,45,-9
1482546958069231,28,10,12,7,8,2,-128,-19
1482546958091414,-6,-12,-8,4,-2,5,125,10
1482546958091414,3,11,-1,2,7,1,-51,7
1482546958091414,10,-3,-10,-7,0,6,36,32
1482546958091414,-8,2,12,-3,-5,-15,-59,-44
1482546958113427,30,9,-5,-8,-5,4,54,32
1482546958113427,-11,-6,5,5,3,-1,-31,21
1482546958114400,-6,3,-1,-8,-2,-3,4,-4
1482546958114400,-15,-4,5,-1,0,-2,41,10
1482546958127466,-4,-24,-11,-4,-2,-3,-44,-3
1482546958127466,2,-18,13,1,-2,1,39,-2
1482546958135588,1,2,-4,9,1,-3,-28,-22
1482546958135588,-1,4,-6,-8,4,5,23,11
1482546958150598,-5,4,-3,3,-3,4,44,59
1482546958150598,10,0,0,-5,-2,-2,4,-32
1482546958151550,-2,-2,-1,-2,-2,4,1,17
1482546958151550,-6,-11,-8,17,4,-4,81,51
1482546958173621,3,9,1,-38,-17,-3,-48,-23
1482546958173621,2,4,0,29,2,-5,14,-10
1482546958174572,13,16,18,-8,17,8,-56,-10
1482546958174572,-15,-12,-33,-19,-14,8,90,72
1482546958188469,0,8,6,9,0,-1,-39,-34
1482546958188469,-6,-3,-2,18,8,0,18,0
1482546958189421,-12,-13,-13,-35,-20,-13,-70,-75
1482546958189421,-4,-5,9,7,15,-8,-59,-22
1482546958210485,-8,0,1,7,-11,-2,-30,-23
1482546958210485,0,-1,-7,-54,-9,0,0,-18
1482546958211431,5,1,7,47,14,-5,-45,-10
1482546958211431,-7,0,-8,-49,-9,0,4,-23
1482546958233570,13,-1,-2,30,7,-5,-15,19
1482546958233570,-17,28,6,4,-2,-9,-92,-53
1482546958234543,0,-6,2,2,-1,8,93,77
1482546958234543,-13,-5,4,-2,-9,-10,-28,-12
1482546958249556,-2,3,5,12,13,5,72,19
1482546958249556,3,-14,-11,-3,-10,0,-16,-34
1482546958250526,0,6,-9,-10,-4,-4,-36,-41
1482546958250526,-2,2,0,17,-3,-7,-4,-8
1482546958271119,-4,0,2,-16,-1,-5,-37,-16
1482546958271119,0,-5,0,9,4,2,16,-1
1482546958272103,0,4,-3,-5,6,-6,25,-4
1482546958272103,8,-3,0,24,-11,-1,-35,-18
1482546958293729,-3,2,7,6,24,0,-28,-27
1482546958293729,-3,-11,-11,12,1,17,58,43
1482546958293729,0,4,-11,-36,-20,-7,11,-25
1482546958293729,6,-1,18,8,11,-1,-35,-10
1482546958308757,-6,0,-18,12,-5,-4,-6,9
1482546958308757,-1,-6,11,13,-3,-1,15,19
1482546958308757,-4,-8,-17,-9,-2,-3,27,49
1482546958308757,7,4,-2,-9,-6,-1,-36,-4
1482546958330790,6,14,9,3,8,12,92,60
1482546958330790,-10,-10,3,-7,7,3,-48,-16
1482546958331765,-3,0,14,2,-7,-2,33,39
1482546958331765,-3,-4,-21,28,0,-2,-23,-29
1482546958353754,-9,-13,-3,-96,-21,-6,-51,-29
1482546958353754,7,3,-1,22,-2,-5,-20,-1
1482546958353754,2,4,11,17,8,4,12,13
1482546958353754,0,6,1,7,7,5,24,2
1482546958367875,2,0,22,49,-4,-2,-9,-5
1482546958367875,0,-8,-31,-38,-4,-2,33,23
1482546958375943,-1,-2,-6,-31,-11,-5,-57,-35
1482546958375943,-1,-2,-4,6,-2,-1,-1,29
1482546958399015,0,7,7,27,1,0,-14,5
1482546958399015,0,-19,-22,-60,-5,-4,3,-2
1482546958399987,0,-1,24,33,0,-1,9,30
1482546958399987,-2,-4,-31,-34,-2,-4,-32,-22
1482546958413024,2,3,4,33,4,4,3,-7
1482546958413024,8,20,15,40,20,5,-24,2
1482546958413968,2,-6,3,-34,-9,7,48,42
1482546958413968,-4,-5,-30,-30,-6,4,113,73
1482546958428033,-9,-26,21,-28,-13,-6,-6,-26
1482546958428033,-20,-12,-2,-18,-2,-4,-3,10
1482546958436039,6,10,-5,10,7,1,-29,-28
1482546958436039,-2,17,77,71,26,6,-37,-40
1482546958451048,4,3,-32,-2,-1,-2,-29,2
1482546958451048,1,-4,5,-11,-11,1,115,57
1482546958451995,8,3,-11,9,-1,-8,-32,-23
1482546958451995,-17,-2,5,-5,5,3,-4,-16
1482546958473689,0,2,-3,33,6,-2,-31,-15
1482546958473689,7,9,4,-61,-9,-1,-56,-29
1482546958474131,10,17,45,59,-6,-5,20,21
1482546958474131,-19,-38,-14,-53,-12,-2,-2,-9
1482546958487213,-4,8,3,-6,3,-2,-37,-37
1482546958487213,2,9,38,36,5,2,29,12
1482546958496215,-1,-12,-50,-7,4,-2,-4,-13
1482546958496215,19,18,6,20,0,1,-32,-14
1482546958511217,-9,-9,-3,-24,2,-2,18,-8
1482546958511217,2,-3,-11,11,-5,0,-1,-4
1482546958511217,-10,13,-1,-4,5,3,-28,-20
1482546958511217,2,-5,28,-8,-5,-2,14,-20
1482546958533246,-6,-6,-55,-23,-2,1,77,67
1482546958533246,1,-8,56,2,-12,-4,0,3
1482546958534228,0,-11,-44,7,-1,-4,-4,-9
1482546958534228,5,9,-1,-13,6,0,-15,1
1482546958547238,-6,-4,20,25,-4,-3,-18,-11
1482546958547238,7,4,-17,-23,-9,0,6,0
1482546958556261,-6,-8,19,-21,2,1,4,2
1482546958556261,1,-3,-13,6,-4,-10,1,3
1482546958571327,11,18,19,17,8,5,-5,0
1482546958571327,1,0,-7,32,5,4,5,4
1482546958571827,-13,-15,-32,-29,-19,-7,-22,-22
1482546958571827,2,4,-9,-8,0,0,4,6
1482546958593020,-2,-5,-2,5,-6,-4,-14,-4
1482546958593020,-2,10,0,2,-2,-5,0,3
1482546958594016,5,1,2,2,8,2,-32,33
1482546958594016,1,-2,-7,6,-4,3,73,43
1482546958608031,1,1,-6,-53,-5,-5,-94,-41
1482546958608031,-4,-6,9,49,-5,-2,31,14
1482546958616037,3,3,8,9,9,0,-10,-17
1482546958616037,-2,-2,-3,-6,-9,-5,-20,-14
1482546958631049,-3,6,5,13,3,2,-13,-8
1482546958631049,33,18,-72,1,16,11,2,13
1482546958632031,-12,-36,53,-85,-21,-14,-6,-38
1482546958632031,-12,-4,16,18,-14,-5,-23,-13
1482546958661590,5,1,-18,13,5,1,-10,13
1482546958661590,-4,0,59,25,13,3,30,4
1482546958662587,-8,-7,-87,12,-15,-8,20,2
1482546958662587,5,-1,-20,-43,14,5,-8,2
1482546958668077,4,7,19,-12,0,0,9,3
1482546958668077,-9,-4,21,25,-4,0,-11,1
1482546958676100,0,17,20,0,7,2,-8,-7
1482546958676100,-2,-14,1,15,1,-1,4,4
1482546958690487,-1,-1,-57,-44,-3,-3,-16,-21
1482546958690487,1,14,95,47,0,-1,-7,-9
1482546958691432,-4,-6,-36,-2,-12,-4,35,16
1482546958691432,-8,-26,-30,-33,-12,-10,-20,-18
1482546958713588,3,18,80,47,4,-1,4,-5
1482546958713588,-15,-29,-86,-65,-5,-6,-14,-11
1482546958714560,4,21,47,20,17,10,16,5
1482546958714560,6,11,-11,-7,-18,-2,-13,-6
1482546958736563,-2,-14,-27,-20,-11,0,47,8
1482546958736563,0,13,-9,-4,0,-6,-41,-13
1482546958737561,8,14,92,33,9,5,0,5
1482546958737561,-11,-19,-68,-20,3,-1,-10,-5
1482546958750613,-4,-10,-6,7,-4,-2,18,-1
1482546958750613,-4,6,-15,-36,-1,2,17,16
1482546958751561,13,13,40,55,1,2,5,0
1482546958751561,9,27,66,-5,-4,0,10,7
1482546958773652,3,-29,-35,-10,11,0,-14,0
1482546958773652,-6,-6,15,-33,-14,-14,-55,-24
1482546958774635,3,-14,-117,-11,5,4,4,-2
1482546958774635,2,14,78,10,1,3,6,12
1482546958796251,0,22,11,35,-3,0,1,4
1482546958796251,0,-16,-25,-18,7,8,27,12
1482546958797246,-10,-8,18,-11,-10,-8,-23,-63
1482546958797246,4,8,-18,0,0,-2,-10,-5
1482546958811337,-3,-2,58,3,-14,-5,3,0
1482546958811337,-1,-3,37,17,7,0,9,-3
1482546958811337,-5,-5,-55,-5,1,-3,-23,1
1482546958811337,2,-3,-55,9,-11,0,15,5
1482546958833378,0,3,-5,-32,4,2,4,2
1482546958833378,-7,-7,-4,-5,-12,-6,-13,-9
1482546958834352,-1,-1,21,26,3,-1,6,14
1482546958834352,6,10,2,-64,-5,4,-8,-4
1482546958856354,2,-15,-79,52,15,4,11,11
1482546958856354,-2,20,29,-43,-10,-2,2,-3
1482546958857352,-12,-40,-62,-12,3,-2,-4,2
1482546958857352,-6,-4,25,74,-5,-6,5,2
1482546958870883,0,3,19,-48,-10,-3,-16,-1
1482546958870883,-1,-5,-38,26,8,0,27,10
1482546958871872,2,10,28,-15,0,2,-3,6
1482546958871872,2,4,-9,-35,-11,-3,-6,-7
1482546958893640,-4,-9,17,46,4,-1,8,1
1482546958893640,-1,-4,-7,-7,4,0,-13,-5
1482546958893640,-4,10,34,-11,-11,-3,-1,6
1482546958893640,-1,-5,-15,21,9,0,3,2
1482546958916670,2,13,19,-12,-5,-2,0,2
1482546958916670,-4,-26,-103,-26,-8,-1,-1,-3
1482546958917659,0,5,9,-12,0,3,1,1
1482546958917659,2,4,11,26,14,3,0,-2
1482546958930684,-2,-1,-7,-10,-9,0,3,-1
1482546958930684,2,3,25,0,10,3,-3,0
1482546958931677,-4,-15,-43,-10,-3,-4,0,-1
1482546958931677,-1,3,-11,10,4,0,-4,-2
1482546958953775,-1,0,52,6,2,1,3,2
1482546958953775,-5,-10,21,29,-20,-8,-4,-6
1482546958953775,0,8,5,7,14,-3,-2,4
1482546958953775,3,3,7,-11,10,4,3,1
1482546958976314,-4,-8,-42,-27,-4,0,1,-2
1482546958976314,1,5,-14,17,-3,3,1,2
1482546958977725,1,8,9,-5,11,8,1,2
1482546958977725,0,-4,0,-38,-2,-2,-1,0
1482546958990752,-3,-5,-9,40,-9,-5,-24,6
1482546958990752,2,8,-6,8,1,-3,30,2
1482546958991755,2,1,9,-13,-4,2,12,-5
1482546958991755,-7,-13,44,54,0,-4,-3,-3
1482546959013764,3,1,-37,-18,6,2,4,25
1482546959013764,2,5,15,24,2,1,-14,0
1482546959013764,2,0,-36,-66,-3,0,-3,2
1482546959013764,-19,-31,81,76,-26,-23,-8,-16
1482546959035783,-3,1,-17,38,-1,1,1,-13
1482546959035783,-2,3,-15,-17,-4,-1,-6,-1
1482546959036770,13,15,-13,-21,18,5,3,5
1482546959036770,1,7,-46,-40,-1,9,-1,0
1482546959050794,-2,-5,-20,-17,13,2,2,-3
1482546959050794,-5,-14,51,17,-16,-9,-7,-6
1482546959051780,-5,4,16,32,-8,-4,-3,-1
1482546959051780,3,8,-13,-5,11,2,2,4
1482546959073815,-2,2,25,-41,-6,-1,5,-7
1482546959073815,1,-7,-52,-2,-2,-4,-6,1
1482546959074334,-12,-2,27,-3,-10,-6,-6,-4
1482546959074334,0,3,-6,14,1,1,-1,1
1482546959095491,4,5,-34,-26,11,11,11,2
1482546959095491,16,-3,10,0,0,2,-7,-4
1482546959096488,-3,-13,6,-12,-11,-6,-7,-2
1482546959096488,7,7,-24,-8,-9,-11,2,-5
1482546959110501,-25,-3,24,-6,-7,-2,-2,-12
1482546959110501,-4,6,-5,-7,-4,-4,-2,0
1482546959111484,-1,-1,-4,0,23,3,1,0
1482546959111484,-5,-9,-26,18,16,15,3,3
1482546959133500,9,4,31,-40,-13,-4,-1,-3
1482546959133500,-4,-1,12,60,3,-3,1,-1
1482546959134502,-1,2,7,-24,-29,-3,-3,0
1482546959134502,3,0,-17,-6,-8,-7,-6,-1
1482546959157574,4,-2,3,19,6,-6,-2,-2
1482546959157574,-4,3,-7,-17,2,3,0,2
1482546959158547,5,4,-5,2,6,4,3,1
1482546959158547,2,2,-7,-7,8,4,2,3
1482546959186971,-1,-7,13,22,-5,-4,2,-2
1482546959186971,-5,2,-13,-67,-3,1,-2,-1
1482546959186971,-2,-4,-1,35,-6,-5,-3,-1
1482546959186971,1,1,-4,-23,-1,2,0,2
1482546959192990,1,0,12,3,2,1,2,-1
1482546959192990,2,4,-8,-8,-10,-2,-2,-2
1482546959193987,-4,-17,-14,65,22,6,-7,-3
1482546959193987,-3,3,11,-53,-5,-7,3,-2
1482546959215994,-1,-2,-38,9,-20,-2,-3,-4
1482546959215994,-2,-4,-13,-21,6,7,6,1
1482546959216989,1,3,39,24,-14,-9,-2,-1
1482546959216989,2,6,16,30,14,7,2,3
1482546959231016,0,-6,-7,9,3,-2,0,1
1482546959231016,3,3,-37,3,-1,2,2,0
1482546959232011,-1,0,-1,-35,-15,-3,0,-3
1482546959232011,1,0,19,25,3,-4,-2,-2
1482546959253047,-2,3,20,-14,-8,-5,0,1
1482546959253047,-4,-24,-18,12,2,-1,-3,0
1482546959254046,2,20,13,-2,7,5,4,0
1482546959254046,1,13,24,-23,-7,0,-7,-1
1482546959276087,2,-3,-32,4,1,0,-2,-8
1482546959276087,-1,-18,-15,4,2,0,7,1
1482546959277087,-14,4,41,6,-5,-6,-2,16
1482546959277087,-2,-9,-33,-2,1,2,-1,-3
1482546959291096,7,-1,2,6,-4,-2,0,5
1482546959291096,-16,7,56,-6,11,-1,-6,-14
1482546959292097,1,-16,-89,-33,-11,-4,12,19
1482546959292097,-7,1,26,41,-3,-3,-19,-63
1482546959313172,1,2,-5,-2,10,4,13,7
1482546959313172,5,11,17,-6,1,2,-8,-2
1482546959314142,3,-6,-36,-25,10,8,4,-1
1482546959314142,-2,6,38,10,-9,-7,-2,13
1482546959336184,0,-1,-24,-23,1,-1,-1,0
1482546959336184,-1,5,15,-19,-11,-5,3,-4
1482546959337130,-2,-1,12,26,-9,-3,-9,1
1482546959337130,7,-2,-30,-2,24,3,8,12
1482546959350196,-5,-2,61,-19,0,-1,-4,0
1482546959350196,2,5,-53,18,8,2,0,9
1482546959358201,0,-2,12,5,-19,-6,-5,-13
1482546959358201,0,-6,-2,2,2,8,13,-1
1482546959373786,-6,-11,-3,-22,-4,-5,0,-2
1482546959373786,0,6,16,3,-35,-8,-2,-2
1482546959374280,2,-1,-9,36,59,10,-5,-8
1482546959374280,-2,-10,28,-22,-23,-6,-5,6
1482546959396059,-8,-12,-26,8,13,2,-7,-3
1482546959396059,4,8,39,13,0,-4,2,2
1482546959397008,0,-11,-31,-6,-13,-3,-4,-9
1482546959397008,3,0,-20,-7,-2,-1,-2,9
1482546959410040,-1,6,17,-15,-5,2,9,3
1482546959410040,0,-2,-13,-32,6,-2,-36,-12
1482546959418073,-1,1,52,40,-8,-3,29,13
1482546959418073,-2,-2,-3,-13,1,1,20,9
1482546959433083,2,0,-43,27,-10,-7,-31,-2
1482546959433083,1,-1,15,16,16,6,7,6
1482546959434030,2,5,-4,-15,-4,3,-1,0
1482546959434030,-2,-12,-56,-25,-8,-9,-31,0
1482546959456101,11,6,37,-24,0,2,44,19
1482546959456101,-10,1,-20,20,15,2,-5,-3
1482546959457044,2,6,12,-12,-18,1,2,-4
1482546959457044,-1,0,15,4,-2,-2,-12,-6
1482546959480256,2,6,-15,42,0,0,-12,-8
1482546959480256,1,-11,3,-36,-34,-18,3,2
1482546959481257,2,1,23,5,43,18,0,-5
1482546959481257,2,2,-17,0,9,6,6,6
1482546959493268,0,17,51,11,2,-2,-12,-8
1482546959493268,-3,1,-28,-2,-6,-2,13,4
1482546959494252,-6,2,-22,0,-15,-7,0,1
1482546959494252,-2,-10,1,-29,-19,-9,-11,-5
1482546959516271,-3,8,42,57,28,6,10,-3
1482546959516271,-4,-13,-8,-4,4,4,-6,-6
1482546959516271,0,-2,-6,-24,-6,-3,-6,-4
1482546959516271,-1,3,-30,22,9,2,8,-1
1482546959530277,7,-5,-49,-39,-19,-7,-22,-7
1482546959530277,-3,-7,-16,33,-11,-4,29,5
1482546959538300,-4,-2,6,-48,3,-2,-36,-16
1482546959538300,-4,3,-6,-13,-4,-2,2,-14
1482546959553315,11,-9,9,14,-1,6,-7,5
1482546959553315,14,3,8,20,9,2,9,9
1482546959554310,-6,1,-34,-3,-7,-5,-9,-9
1482546959554310,-4,2,12,-44,0,0,-23,-11
1482546959575839,-15,-17,27,-35,-23,-18,-9,-15
1482546959575839,-3,2,6,6,10,2,-7,-12
1482546959576822,4,-1,28,20,-5,-1,2,6
1482546959576822,3,3,-22,11,11,5,14,11
1482546959590448,-5,0,-6,-4,7,3,-4,-6
1482546959590448,3,-1,-27,-15,-5,1,-5,-1
1482546959598455,0,2,20,-6,-13,-9,0,-2
1482546959598455,0,6,-6,14,0,1,-3,5
1482546959613471,-8,-12,-2,17,4,-2,6,6
1482546959613471,-2,1,-20,-63,0,-1,-7,-9
1482546959614449,6,-3,-5,57,-1,-1,4,2
1482546959614449,-4,6,30,-42,-9,-4,-9,3
1482546959635483,-6,-1,0,-3,-2,-4,7,-12
1482546959635483,0,8,-19,8,9,8,33,16
1482546959636463,1,-6,28,-10,-6,-2,-15,-9
1482546959636463,15,-2,24,20,-2,-1,16,13
1482546959650492,1,5,-16,2,-7,-8,-29,-4
1482546959650492,-5,-9,12,1,0,2,-18,-7
1482546959658496,3,-4,-17,-29,-4,-4,18,0
1482546959658496,-8,-6,-5,25,-1,-1,9,-16
1482546959673608,-3,3,-7,-16,-2,-3,-42,-11
1482546959673608,-4,-1,12,3,5,3,13,4
1482546959674590,1,4,-12,16,3,2,-25,0
1482546959674590,-2,-5,-11,-54,-8,-3,-10,10
1482546959696140,4,2,1,25,9,9,98,56
1482546959696140,9,3,55,-8,-2,-5,-76,-23
1482546959696140,-8,3,3,10,-2,1,83,33
1482546959696140,10,-6,-59,33,-2,-3,-3,5
1482546959719137,-15,7,18,-30,8,7,0,0
1482546959719137,8,2,2,37,-19,-5,-22,-3
1482546959720138,-4,-3,14,-42,0,-5,-17,-12
1482546959720138,-2,3,27,16,-14,-1,3,1
1482546959733200,7,3,-11,-4,6,11,3,0
1482546959733200,3,15,37,55,9,3,23,6
1482546959734175,-6,-23,-91,-13,3,-4,-26,-16
1482546959734175,-5,-17,6,-6,-14,-7,12,-1
1482546959756190,-3,6,8,-15,-14,-10,-36,-20
1482546959756190,-13,-11,0,-13,2,-2,27,6
1482546959756190,2,13,16,11,-2,1,-6,15
1482546959756190,10,-15,4,1,12,4,-14,7
1482546959778850,-4,2,-23,9,-2,-2,2,-7
1482546959778850,-16,1,-21,-11,1,-1,31,19
1482546959779844,2,-15,6,1,-2,-1,-53,-39
1482546959779844,-2,8,16,15,7,5,64,39
1482546959792856,10,1,12,-1,-2,0,-30,-24
1482546959792856,7,2,-9,-1,0,3,1,9
1482546959793853,1,6,21,-4,1,-1,-22,-8
1482546959793853,-3,0,-8,3,4,-2,-54,-37
1482546959815875,3,-7,-16,1,-6,-3,47,26
1482546959815875,-3,-3,4,-14,-3,-3,-27,-15
1482546959816854,-3,2,-13,11,2,2,15,3
1482546959816854,1,15,56,26,19,2,-5,-4
1482546959838887,-12,-18,-89,-31,-22,-3,4,2
1482546959838887,-2,-9,-9,-49,-1,-2,-7,-7
1482546959839871,4,6,17,0,-2,0,-1,-1
1482546959839871,-4,4,0,4,-5,-1,19,2
1482546959852989,0,-7,30,6,1,-3,-38,-3
1482546959852989,1,-3,-4,12,0,5,22,9
1482546959853968,2,2,5,-3,1,4,26,17
1482546959853968,-6,4,31,3,-6,-5,-12,-6
1482546959876027,-2,-22,-90,-9,2,-2,1,-6
1482546959876027,-10,-14,13,4,-5,-7,-26,-14
1482546959877047,-1,4,27,-7,-4,-3,9,5
1482546959877047,0,3,-4,-3,0,0,-6,-4
1482546959899274,5,11,25,8,0,-1,-4,-6
1482546959899274,3,-1,6,0,8,-1,-5,-4
1482546959900248,-5,-5,-21,-3,-3,-4,-1,-3
1482546959900248,-7,10,31,-4,6,-1,-25,-22
1482546959913235,-6,-17,-17,-4,-3,0,34,17
1482546959913235,16,4,-8,14,-2,0,-1,-3
1482546959914233,-7,0,6,-41,-7,-3,3,6
1482546959914233,3,12,-6,-2,-1,1,-1,0
1482546959936275,-3,9,39,14,2,-1,-12,-7
1482546959936275,-2,0,-9,-1,-2,-3,2,0
1482546959936275,1,-6,9,7,-3,-2,0,-4
1482546959936275,0,-2,-23,29,-1,3,-6,4
1482546959959269,-5,-4,18,-15,-2,-1,7,-1
1482546959959269,-4,-9,-13,-14,-11,-4,-2,1
1482546959960277,9,29,61,17,2,2,1,0
1482546959960277,-14,-54,-120,-38,-15,-1,-2,-2
1482546959973846,-2,19,26,18,5,1,-4,-4
1482546959973846,-1,3,-13,-23,-7,-8,-7,-7
1482546959974339,-2,0,21,24,3,-1,1,2
1482546959974339,3,5,1,6,4,-1,13,4
1482546959995521,5,2,5,-8,3,1,-47,-16
1482546959995521,-3,-1,20,8,5,6,74,33
1482546959996471,-1,-9,-41,-14,-1,-1,-2,-2
1482546959996471,1,6,-8,22,6,1,-3,-7
1482546960018624,0,11,86,32,-2,-3,3,2
1482546960018624,2,12,-27,-27,5,2,-23,-10
1482546960019596,-5,-18,37,29,-6,-5,-1,-3
1482546960019596,-4,1,0,27,-8,-6,0,-2
1482546960033605,2,-3,7,1,-1,-1,7,2
1482546960033605,-1,0,-7,25,15,5,-15,-5
1482546960033605,0,-1,-8,-7,2,-2,4,4
1482546960033605,8,17,3,-37,8,3,-17,1
1482546960055682,-3,-4,-12,-3,-3,2,23,6
1482546960055682,-1,7,39,30,2,-2,8,0
1482546960056622,-1,-3,24,-55,-7,1,-6,3
1482546960056622,-1,9,3,-25,-6,-5,2,-5
1482546960079356,2,-18,-69,18,0,-3,-6,-3
1482546960079356,1,-5,-63,-6,2,1,2,0
1482546960079356,-2,11,42,3,-7,-5,-3,-5
1482546960079356,2,14,13,19,2,0,3,4
1482546960093362,-7,-5,10,-90,-10,-5,-5,-3
1482546960093362,1,-1,34,5,0,0,-14,-6
1482546960094362,-3,-27,-110,16,2,2,-1,0
1482546960094362,-4,9,83,-17,-2,0,6,4
1482546960115377,3,12,-46,24,4,-2,-6,-4
1482546960115377,-5,0,66,10,5,7,-6,-3
1482546960116373,4,0,-43,-32,1,-1,1,-12
1482546960116373,-5,-14,6,21,0,0,-34,-14
1482546960139473,-4,-3,7,14,0,-1,58,16
1482546960139473,-2,3,-16,-13,-8,-3,-4,2
1482546960139473,15,7,-10,32,5,2,-7,-3
1482546960139473,-25,-12,-24,-36,3,4,17,3
1482546960153522,1,3,57,17,-6,-7,-41,-11
1482546960153522,2,6,-28,7,-4,-4,2,-5
1482546960154499,-15,-35,-51,-25,2,4,20,10
1482546960154499,8,5,16,34,-1,-4,-4,0
1482546960176019,-4,-34,-89,-32,2,-1,-7,1
1482546960176019,-4,7,116,35,-9,-6,0,0
1482546960177008,1,15,9,18,6,1,-12,-8
1482546960177008,-3,-21,-45,-27,-6,-3,-21,-5
1482546960199039,7,7,1,-2,5,5,53,32
1482546960199039,2,-5,-41,3,0,-4,-29,-9
1482546960200039,-4,7,-12,6,-5,-4,-1,-1
1482546960200039,2,-1,7,-9,-7,-3,5,3
1482546960213163,2,11,7,7,20,6,-11,-10
1482546960213163,0,-10,-17,-5,-3,-2,-2,1
1482546960214124,-5,11,67,32,-7,-5,6,2
1482546960214124,1,1,-4,-12,-1,-2,5,-1
1482546960236177,0,10,17,3,-7,-4,-17,-7
1482546960236177,-5,-16,-63,-28,-1,-1,9,-1
1482546960236177,3,-10,39,-23,11,6,-10,-4
1482546960236177,1,3,5,-8,-9,-3,12,4
1482546960259309,-4,-25,-30,2,-5,-2,-8,-5
1482546960259309,0,20,15,13,-7,-2,-9,-3
1482546960260252,1,-1,10,-14,0,1,4,3
1482546960260252,-2,-12,-38,-9,0,-1,-3,1
1482546960273787,8,20,29,-2,1,4,15,9
1482546960273787,10,5,26,19,-4,-3,7,9
1482546960274298,-7,-26,-28,-18,-6,-7,-4,-11
1482546960274298,-14,5,48,32,2,2,9,2
1482546960295920,-4,-2,-36,-22,-10,-2,-22,-12
1482546960295920,-8,-7,21,3,17,2,-11,-10
1482546960296918,13,22,10,6,-3,2,17,13
1482546960296918,-2,-17,-21,-25,5,1,9,0
1482546960318934,-8,6,65,23,-15,-11,-37,-20
1482546960318934,21,1,-19,-2,-7,0,14,-1
1482546960319923,-8,8,-8,-4,18,14,-58,-12
1482546960319923,7,5,2,30,-1,7,99,34
1482546960340950,-3,-7,30,-17,0,4,-7,-2
1482546960340950,1,-2,-22,-51,-1,-3,5,39
1482546960341933,9,4,-2,46,-6,-6,-21,-51
1482546960341933,1,7,-7,-9,4,3,-30,-10
1482546960355961,-3,-1,10,21,5,3,10,-11
1482546960355961,-11,-11,-9,-2,0,0,-20,-15
1482546960356961,0,-4,-5,-23,-4,0,44,35
1482546960356961,9,1,-20,-1,-7,-7,-16,-5
1482546960378998,1,-2,18,20,9,3,8,-1
1482546960378998,-3,-8,-11,-74,-9,5,-11,-11
1482546960380095,-5,-2,-17,10,-3,-8,-22,2
1482546960380095,-2,5,30,7,1,3,26,4
1482546960401110,5,9,-6,-7,-2,-3,-13,7
1482546960401110,-4,-8,-50,56,-6,-5,-3,-8
1482546960402095,-18,-1,-56,-32,-32,-12,4,-3
1482546960402095,0,-15,24,27,16,1,-11,1
1482546960416121,1,9,27,-2,4,7,-3,2
1482546960416121,-2,4,8,7,16,2,7,1
1482546960417106,4,7,23,17,5,0,9,2
1482546960417106,-1,-15,-66,-13,-22,-10,-21,-4
1482546960439138,0,-1,-24,-8,0,3,4,-1
1482546960439138,-4,-4,47,16,4,2,1,-7
1482546960440138,-1,8,18,3,-8,-8,-4,-1
1482546960440138,-4,-5,-17,-11,-4,-9,-9,17
1482546960453131,3,3,71,16,-6,1,34,12
1482546960453131,-8,-5,-5,-5,-3,-11,-11,-5
1482546960461154,4,2,17,-15,14,13,22,18
1482546960461154,1,7,-13,-10,5,4,4,-7
1482546960476164,-5,-3,-2,-10,-13,-11,-43,-17
1482546960476164,-1,8,12,2,-14,-6,14,10
1482546960476663,-2,-9,-46,3,5,1,-17,-7
1482546960476663,-1,0,27,-26,2,0,-17,-8
1482546960499307,0,3,-28,17,-3,1,26,18
1482546960499307,-5,-1,1,-1,3,0,-7,-12
1482546960500251,3,1,19,31,7,2,-2,0
1482546960500251,1,4,35,-51,-1,2,-2,-14
1482546960512275,10,11,-49,-33,2,-1,-6,5
1482546960512275,-13,-27,-30,26,-5,-10,-23,-14
1482546960521265,2,-3,-40,3,3,2,15,9
1482546960521265,5,12,5,16,0,3,-6,-8
1482546960535293,-10,-9,-20,10,10,-4,-2,-8
1482546960535293,8,10,-7,-48,-10,1,0,5
1482546960536275,-2,-5,45,-7,-4,2,0,-2
1482546960536275,0,14,37,46,37,8,8,6
1482546960558307,10,33,-4,-7,10,6,-10,0
1482546960558307,10,17,14,-7,-10,-1,15,4
1482546960559309,-4,1,12,11,5,-5,3,-3
1482546960559309,2,-5,-26,-13,-13,-1,-12,-3
1482546960572838,1,4,85,5,3,-3,0,-1
1482546960572838,5,-2,-6,-6,1,8,4,0
1482546960580436,-4,-2,-12,-50,-2,1,6,3
1482546960580436,-14,-7,3,8,-4,-5,-13,-16
1482546960595466,-4,-10,-26,0,-7,-2,-1,-4
1482546960595466,6,4,12,-1,-3,-2,2,-1
1482546960603467,-2,-8,17,16,-1,-3,-19,-10
1482546960603467,1,-6,-12,-8,-4,0,26,12
1482546960618522,-2,-15,-22,2,-6,-3,-9,-9
1482546960618522,-1,5,36,23,7,3,15,9
1482546960619525,2,9,-33,-6,-5,-4,-1,0
1482546960619525,3,-5,32,8,-1,1,-6,0
1482546960632583,-6,-14,-59,3,5,-1,-2,-4
1482546960632583,-7,-20,-21,2,-11,-2,-1,0
1482546960640588,3,11,26,-16,-38,-14,-5,-1
1482546960640588,-2,-1,11,11,28,1,-3,-3
1482546960655548,0,-22,32,-32,0,12,13,9
1482546960655548,-3,3,20,15,-2,-9,-17,-14
1482546960656574,0,-5,-1,-5,-32,-3,8,6
1482546960656574,7,6,-22,25,24,2,-5,0
1482546960678594,-4,19,31,2,-6,-3,-3,-2
1482546960678594,1,3,-12,0,13,3,3,1
1482546960679583,-1,-11,79,3,-6,-3,-1,0
1482546960679583,-1,-22,-82,-14,-18,-7,-4,-3
1482546960709121,-9,-3,-4,3,4,-3,-12,-2
1482546960709121,4,24,11,-10,0,1,20,18
1482546960710118,-5,-11,-8,12,11,1,3,-3
1482546960710118,-1,-1,3,3,-4,0,-6,0
1482546960716196,5,-1,15,5,3,0,4,-2
1482546960716196,-8,-16,-47,-15,-22,-8,-18,-12
1482546960716196,2,-7,-1,14,24,8,8,5
1482546960716196,-3,6,54,4,-4,-1,-1,-1
1482546960738261,-6,-12,-48,-8,-18,-5,-2,-2
1482546960738261,3,1,13,-10,4,0,-1,1
1482546960739251,-9,-8,-54,-6,8,0,-2,-4
1482546960739251,4,6,69,9,-11,-2,-4,-2
1482546960761296,-4,-18,-2,-6,-7,-7,-1,-4
1482546960761296,-5,-6,2,1,5,0,-7,-6
1482546960762266,0,7,43,6,8,1,0,0
1482546960762266,-1,-2,-59,-6,-16,-2,-2,-1
1482546960783882,5,4,-7,-15,-1,0,1,1
1482546960783882,-6,-9,18,5,8,2,0,0
1482546960784879,-1,-1,-18,5,6,0,-1,0
1482546960784879,5,26,27,10,-10,-5,-5,-6
1482546960797892,-7,-11,-26,23,7,-2,1,-4
1482546960797892,-14,-11,9,-40,-17,-1,-9,-7
1482546960798904,0,-1,-23,-16,7,-3,-7,-8
1482546960798904,-1,-15,-17,-9,-8,-5,0,1
1482546960829070,3,3,-19,6,4,4,0,1
1482546960829070,2,7,10,15,0,0,0,1
1482546960830044,0,2,-7,9,2,1,-14,-5
1482546960830044,-1,-1,-15,-16,-1,3,10,6
1482546960836074,3,4,3,-7,-3,0,-7,-4
1482546960836074,-4,-10,12,24,4,-4,11,4
1482546960837020,-2,-1,-25,6,-5,-3,-5,-3
1482546960837020,-2,-2,-10,-27,-5,1,-3,-2
1482546960858063,-3,-5,-7,-7,-1,-2,-1,-2
1482546960858063,3,15,26,4,8,4,-7,-6
1482546960859041,-2,-2,-39,12,-2,-5,-5,-3
1482546960859041,-3,-5,61,-3,1,0,7,2
1482546960881212,-3,-10,-15,8,-9,-4,0,0
1482546960881212,0,-9,-6,-1,14,4,-2,-1
1482546960882193,2,28,5,-6,-1,1,4,2
1482546960882193,1,-9,51,11,0,0,-4,0
1482546960896205,3,4,-8,0,-1,0,-3,-2
1482546960896205,-2,0,-3,-1,-5,-4,-2,0
1482546960896205,4,3,13,-6,2,1,10,4
1482546960896205,-2,-2,-32,1,3,0,-4,-4
1482546960918235,4,4,43,34,2,-1,1,1
1482546960918235,-2,4,-33,-52,-3,5,4,1
1482546960919234,-5,-9,-6,9,6,0,12,7
1482546960919234,5,-2,-15,-38,-16,-4,-5,-4
1482546960941248,-19,-11,11,7,-4,-3,7,-6
1482546960941248,3,9,2,3,-2,-1,-16,-1
1482546960942249,0,-8,17,4,0,-5,-14,-9
1482546960942249,-4,-5,-25,-45,-3,0,21,8
1482546960956248,-1,28,9,9,-4,-2,7,0
1482546960956248,-1,-16,-5,18,3,0,0,-7
1482546960956248,2,6,15,2,-1,2,6,7
1482546960956248,0,6,-11,30,1,-6,-16,-4
1482546960986385,3,0,4,-15,2,1,0,2
1482546960986385,-1,25,23,2,-1,-2,0,-1
1482546960987382,1,-27,-88,-10,-4,0,-3,1
1482546960987382,-6,17,78,18,2,-2,-6,-5
1482546961001395,-6,-17,-36,-28,-8,-5,-3,-2
1482546961001395,4,0,-3,17,0,-3,-9,2
1482546961002383,4,10,15,-2,1,1,17,6
1482546961002383,3,-2,-19,11,2,1,-6,0
1482546961016419,-1,-16,-15,-4,4,2,1,2
1482546961016419,0,3,9,6,1,0,0,0
1482546961016419,0,-6,5,-9,-7,-4,9,4
1482546961016419,-8,-5,-28,4,3,2,-13,-11
1482546961038457,6,7,17,1,-2,-7,-15,3
1482546961038457,-9,-3,-11,5,2,4,12,6
1482546961039406,-2,-10,-2,-13,-4,0,-3,-13
1482546961039406,0,9,-12,12,0,-1,-40,-7
1482546961061532,-7,-21,-19,-10,-2,1,22,18
1482546961061532,1,1,4,1,-6,-5,1,-6
1482546961062502,1,-2,-8,-17,1,0,7,6
1482546961062502,-1,4,7,11,-2,-1,-16,-17
1482546961076062,3,10,-6,-5,0,0,-3,-9
1482546961076062,1,-7,8,3,-4,-2,0,6
1482546961077054,5,45,44,-32,1,3,1,-2
1482546961077054,-6,-35,13,57,-3,-5,11,3
1482546961098110,6,13,37,-50,-4,-1,-2,3
1482546961098110,-4,-12,-13,-4,-1,-3,10,1
1482546961099085,1,12,-7,16,3,1,-19,-7
1482546961099085,4,9,-2,-16,1,1,17,12
1482546961121085,-1,-5,-11,22,-2,-3,2,0
1482546961121085,1,-1,25,27,-5,-4,-29,-14
1482546961122099,-4,-8,13,-47,9,5,29,9
1482546961122099,-3,-10,-44,13,-6,-4,16,5
1482546961136136,4,8,25,-3,3,3,-17,-12
1482546961136136,-4,-21,-52,-6,-4,-4,-14,3
1482546961137082,-1,19,71,12,-6,-5,17,3
1482546961137082,0,-6,-33,-27,2,2,21,8
1482546961158152,1,18,14,9,1,0,3,-3
1482546961158152,0,-5,0,-17,4,-1,-18,-17
1482546961159126,-6,-11,8,26,-6,-4,-4,3
1482546961159126,5,-14,-54,-11,1,-1,-10,0
1482546961181772,3,7,9,2,1,-1,-29,-9
1482546961181772,-3,-26,-34,-19,1,1,42,12
1482546961182758,1,-2,-20,36,0,-2,-12,-1
1482546961182758,-8,-11,-32,-58,2,1,8,-3
1482546961196781,2,7,39,55,-6,-6,-21,-13
1482546961196781,4,3,-37,-18,1,1,16,7
1482546961196781,1,-1,-7,-1,-2,-1,-7,-5
1482546961196781,4,4,-4,12,2,-1,-2,1
1482546961217781,-4,-6,-3,-2,2,0,5,2
1482546961217781,-6,1,-11,-5,-5,-5,-2,-6
1482546961218782,-10,-18,-16,6,-6,-3,-8,-5
1482546961218782,1,14,22,14,4,1,-6,-1
1482546961241883,-5,-14,-35,-40,2,1,11,4
1482546961241883,3,19,18,21,-1,0,1,1
1482546961241883,2,-3,-16,-14,3,0,-16,-7
1482546961241883,-5,-10,3,14,-7,-3,4,4
1482546961254908,6,20,20,0,2,0,-14,-10
1482546961254908,-13,2,24,3,-2,1,39,24
1482546961263887,2,-9,-2,-10,-1,2,4,0
1482546961263887,-1,-3,14,1,-3,-2,-14,-5
1482546961278446,0,-5,-6,12,0,-3,8,3
1482546961278446,7,10,5,-4,-2,-4,-25,-9
1482546961279444,-6,-4,-2,11,1,1,-8,-5
1482546961279444,0,8,14,-6,1,-1,19,6
1482546961301227,-2,-10,-34,-9,-2,-2,-14,-4
1482546961301227,2,10,11,-3,-5,-1,-19,-14
1482546961302224,-2,-5,4,0,-4,-3,-2,3
1482546961302224,3,0,1,-5,0,-1,9,6
1482546961315235,-3,-5,-16,-2,-1,-2,-25,-10
1482546961315235,1,2,20,5,2,3,31,8
1482546961323242,-2,-9,-41,7,-1,-1,1,-3
1482546961323242,3,34,71,-7,-4,-1,-8,-5
1482546961338254,-13,-12,-28,17,2,-1,3,1
1482546961338254,0,-8,-6,-3,5,0,-9,-2
1482546961339240,1,-4,-33,12,-3,-3,-8,-2
1482546961339240,-2,-3,20,4,1,1,-2,-2
1482546961361372,-4,-18,3,-27,7,3,20,8
1482546961361372,2,0,-37,-1,-1,-3,-12,-8
1482546961362344,1,-1,-17,46,0,-1,1,2
1482546961362344,0,5,6,-52,-3,-2,-6,-3
1482546961375440,-2,-10,23,26,-7,-5,10,3
1482546961375440,3,7,9,0,3,0,-5,-1
1482546961383097,1,-2,6,-25,2,-1,-5,0
1482546961383097,-3,-9,-42,29,0,-2,2,-3
1482546961398131,4,15,21,-7,0,-1,7,4
1482546961398131,-3,-2,-13,-9,0,0,-3,-5
1482546961399086,-3,5,41,-9,-5,-4,-5,-14
1482546961399086,10,-13,-5,10,1,3,9,9
1482546961421149,-12,1,-23,-9,-3,-1,1,3
1482546961421149,-4,-19,-4,8,-4,-3,-8,-3
1482546961422124,-3,-1,27,-8,-3,-1,-1,0
1482546961422124,-3,-7,-27,4,-1,-5,-5,-8
1482546961435132,5,3,-1,5,1,2,5,-1
1482546961435132,-4,-8,-13,-12,-2,0,-1,2
1482546961443165,1,8,22,-5,2,0,1,0
1482546961443165,-7,-8,-28,-3,-1,-1,-5,-3
1482546961458174,3,-7,-18,-17,-6,-2,6,3
1482546961458174,-4,10,36,25,4,-2,-4,-4
1482546961459121,1,-4,33,-9,3,1,3,4
1482546961459121,-2,3,-22,-18,-8,-3,-3,0
1482546961481146,3,-1,15,6,2,-1,1,-1
1482546961481146,-4,-5,-24,-17,-3,-1,-2,-1
1482546961482220,-3,-2,-4,21,-2,-2,-3,1
1482546961482220,-1,0,15,11,1,2,0,1
1482546961495246,-1,3,1,-6,-5,-3,-9,-5
1482546961495246,6,12,4,-5,2,1,-3,-4
1482546961503288,0,3,-7,-4,1,2,-4,-3
1482546961503288,-2,-2,6,-2,1,3,71,21
1482546961518298,1,-4,-30,-2,-4,-1,15,6
1482546961518298,-8,7,-2,6,-1,-1,-13,-3
1482546961519245,-6,-29,-30,-11,-5,-3,-10,-5
1482546961519245,-3,-16,8,0,2,0,-19,-10
1482546961541287,4,17,7,5,3,1,-2,1
1482546961541287,-3,-44,-56,-3,1,1,11,3
1482546961542261,1,28,26,-6,-4,-3,-2,-1
1482546961542261,3,4,3,2,0,-3,-16,-4
1482546961555297,-2,-3,19,-13,-4,-2,1,1
1482546961555297,5,-2,0,2,-3,-2,-7,-2
1482546961563329,-2,-16,-18,-6,1,2,5,2
1482546961563329,8,11,24,6,2,-1,-13,-1
1482546961578860,-7,-20,0,0,3,2,-3,-7
1482546961578860,-1,5,19,-4,-14,-8,0,-1
1482546961579350,0,0,-2,-10,2,1,4,2
1482546961579350,-3,0,-19,-4,4,6,-2,0
1482546961601492,1,-6,-12,-6,-2,0,-1,-1
1482546961601492,4,11,27,20,-1,0,-5,1
1482546961602474,6,22,37,-24,-4,-4,5,4
1482546961602474,-12,-27,-57,1,-3,-4,-16,-8
1482546961624503,-12,1,-30,-4,0,-1,-2,-3
1482546961624503,6,22,33,-1,3,2,2,4
1482546961624503,-6,-44,-53,0,-7,-6,-6,-3
1482546961624503,-7,4,6,-6,-1,-1,-4,-5
1482546961638614,5,8,9,0,0,0,3,0
1482546961638614,11,-5,27,-4,1,1,2,1
1482546961639559,-5,8,-12,16,1,-2,0,1
1482546961639559,-6,10,28,-45,6,2,-2,-1
1482546961661632,-6,-31,-47,41,-9,-6,-4,-3
1482546961661632,1,0,-8,7,-2,-3,-3,-3
1482546961662604,2,5,-3,-2,-1,0,-2,1
1482546961662604,-5,-16,-12,3,-5,-7,-8,-7
1482546961685843,8,26,36,6,6,3,2,0
1482546961685843,2,7,-5,-21,3,2,4,2
1482546961685843,-2,-4,15,-2,-5,-1,-2,-2
1482546961685843,7,5,18,3,4,2,1,1
1482546961698008,-3,-2,-11,-1,-3,-3,-4,-9
1482546961698008,-6,-1,-5,1,-2,-4,-3,5
1482546961698953,-2,3,-3,-12,0,-1,0,-3
1482546961698953,3,5,17,12,-5,-1,-4,0
1482546961728993,4,3,8,-6,4,4,4,-3
1482546961728993,4,7,-6,-9,-2,0,2,13
1482546961729974,-6,4,-15,-8,-5,-3,-4,5
1482546961729974,5,-1,24,12,-6,-3,-4,5
1482546961744006,-11,-2,-7,-5,0,2,0,-6
1482546961744006,-12,-20,-30,21,-1,0,-5,-7
1482546961744988,7,-2,9,-10,1,1,3,4
1482546961744988,-3,0,-21,5,-1,-1,2,-6
1482546961758050,4,3,19,1,0,-4,-2,5
1482546961758050,-1,-1,-2,-6,1,0,-2,-6
1482546961758996,2,-2,-1,7,-2,0,0,1
1482546961758996,8,12,6,2,-1,0,-4,-1
1482546961782031,2,-10,-63,1,0,-2,-2,2
1482546961782031,-15,-70,-74,-22,-7,-4,2,-7
1482546961782031,-17,5,-4,1,-2,-3,-7,-11
1482546961782031,-4,5,8,6,0,0,-2,3
1482546961804458,3,12,15,-5,-2,-1,4,6
1482546961804458,18,19,17,10,5,4,-1,1
1482546961804458,-8,-9,-6,-5,-4,-2,0,-3
1482546961804458,-3,-1,-5,-1,-1,0,0,-2
1482546961818578,-4,1,32,-16,-9,-4,-2,-1
1482546961818578,0,8,14,7,-2,-3,-2,-7
1482546961819524,4,5,0,12,4,1,5,4
1482546961819524,0,26,77,-3,3,1,1,0
1482546961841597,0,-2,-11,-5,-2,-1,-1,1
1482546961841597,-7,10,19,-3,-2,-1,1,-7
1482546961842569,1,-9,-10,-4,-2,-1,2,-2
1482546961842569,-1,0,-21,7,1,1,-10,-3
1482546961864560,-1,-9,13,3,2,1,13,5
1482546961864560,-1,15,8,-5,0,-1,0,-1
1482546961864560,5,5,15,33,1,0,6,0
1482546961864560,-1,-13,-11,-61,-5,-4,-1,1
1482546961878623,10,24,57,14,9,6,-1,2
1482546961878623,-20,-18,1,23,-9,-5,-5,-5
1482546961879608,-8,-9,-52,-10,1,-1,-3,-6
1482546961879608,1,2,-21,18,-1,-3,3,1
1482546961901322,-5,-7,-22,-25,-1,1,-6,-23
1482546961901322,10,10,11,-12,2,1,3,26
1482546961902299,16,7,4,6,-2,1,-3,2
1482546961902299,-13,-11,-27,0,-4,-2,-1,-4
1482546961924339,2,0,5,4,0,-2,-5,4
1482546961924339,1,12,-18,-15,3,1,-1,-9
1482546961925284,-2,-4,27,5,-7,-4,-4,-3
1482546961925284,12,-1,-4,-11,-1,0,2,4
1482546961938310,-12,-4,0,-2,0,1,0,5
1482546961938310,-7,-8,15,23,-3,-4,-3,-14
1482546961939294,5,2,-9,-17,2,0,-2,3
1482546961939294,-4,-1,-14,9,-1,-1,2,-2
1482546961961432,-5,8,-19,-41,4,2,4,17
1482546961961432,-6,-9,55,29,-8,-3,-3,-5
1482546961962405,5,2,-21,-5,3,-1,0,0
1482546961962405,-2,7,-3,20,0,-1,1,-7
1482546961983973,6,-9,-37,-33,2,1,-4,4
1482546961983973,3,10,-5,-31,-2,0,0,2
1482546961984957,-1,6,35,-21,-6,-3,-2,-2
1482546961984957,-1,1,-41,16,5,0,-1,5
1482546962006991,0,-5,6,13,1,3,-2,-5
1482546962006991,9,19,-20,-55,8,5,5,3
1482546962006991,-13,-17,57,60,-14,-10,-10,-10
1482546962006991,8,-1,-7,-6,-2,-3,-8,1
1482546962020999,-9,-5,-46,1,-2,0,13,4
1482546962020999,2,2,-13,12,6,4,3,0
1482546962021982,-3,4,2,-16,1,-1,-10,-7
1482546962021982,0,-2,20,-5,-3,1,7,0
1482546962044021,5,-4,15,22,-6,-7,-11,-7
1482546962044021,2,3,-5,4,-4,-1,3,8
1482546962045015,-5,-1,-7,10,6,3,-2,-10
1482546962045015,-2,-7,20,22,-2,2,-1,4
1482546962058124,1,2,81,28,-6,-7,-11,-9
1482546962058124,-3,2,-44,-7,-3,-5,-14,-11
1482546962059100,5,-4,0,-11,-1,0,19,8
1482546962059100,1,16,31,49,-5,-2,1,-6
1482546962081623,8,-5,-7,-3,5,-1,1,-1
1482546962081623,22,9,6,33,14,10,4,-15
1482546962082622,-12,-3,-4,-71,-1,-3,-33,9
1482546962082622,-18,-5,-13,38,-2,-2,48,15
1482546962104186,4,-1,14,-29,-12,-5,-10,-5
1482546962104186,1,2,21,33,-3,-7,0,2
1482546962105136,15,9,-46,-8,6,13,10,-3
1482546962105136,-18,-21,-15,-30,5,1,-12,-7
1482546962118194,-9,-4,12,3,-4,-4,-9,-2
1482546962118194,-3,-4,12,-13,2,-2,3,2
1482546962119169,-4,0,-88,-2,-5,-6,0,-4
1482546962119169,6,0,26,-52,-25,-12,-48,-8
1482546962142163,4,-2,-6,58,36,13,56,17
1482546962142163,0,-16,-38,-21,-9,-5,-44,-17
1482546962143162,11,11,54,31,9,8,55,30
1482546962143162,2,-12,-36,44,5,4,18,-5
1482546962164229,-16,6,-18,-39,-17,-11,-33,-8
1482546962164229,-8,-18,34,-20,3,7,4,2
1482546962165184,-5,1,16,20,-5,1,-4,-10
1482546962165184,-12,-20,-56,-36,-12,-11,-23,-15
1482546962178726,10,20,1,-46,-14,-5,1,7
1482546962178726,4,-2,28,36,-2,0,19,2
1482546962179230,-7,1,-4,0,-1,8,-11,-5
1482546962179230,-4,-7,21,-1,-1,-10,9,14
1482546962201839,6,19,75,33,4,-3,-48,-15
1482546962201839,-8,-7,14,-19,8,10,43,18
1482546962201839,-9,8,22,-11,-12,-13,-10,-8
1482546962201839,16,24,4,-3,21,13,9,0
1482546962223855,0,-29,-46,-25,-8,-8,-3,-2
1482546962223855,-7,-6,-58,-26,-15,-10,-29,-17
1482546962224852,1,8,68,25,0,0,-10,14
1482546962224852,0,4,-21,16,-5,3,73,15
1482546962237913,0,4,-26,5,-3,2,9,1
1482546962237913,0,4,40,12,-4,0,4,-8
1482546962246000,3,-10,-28,-8,11,-4,-25,-14
1482546962246000,-7,2,-2,-29,9,9,-8,11
1482546962262007,-2,-30,-37,54,-19,-16,16,2
1482546962262007,-7,8,24,37,13,-1,-14,-15
1482546962262007,5,-2,19,8,11,4,-11,-4
1482546962262007,21,20,1,-1,-3,0,-61,-49
1482546962284152,-12,-17,-73,12,6,9,-6,23
1482546962284152,-16,-24,-1,-83,-23,-15,-26,20
1482546962285142,14,9,87,56,-19,-2,52,10
1482546962285142,1,-16,-75,-54,-10,-15,-69,-10
1482546962297158,13,13,91,-23,27,11,-78,-47
1482546962297158,-3,8,-60,9,6,6,98,50
1482546962306219,10,27,36,55,9,12,-8,10
1482546962306219,-4,-25,-36,-57,15,3,-38,-2
1482546962321280,-23,-23,-14,-10,-20,-22,-62,-38
1482546962321280,-4,4,-10,-11,-4,-7,34,0
1482546962322226,11,5,-9,-64,-3,5,9,15
1482546962322226,12,19,-36,64,2,6,57,9
1482546962344298,-5,8,16,-2,3,10,12,10
1482546962344298,11,0,-56,49,6,3,-36,-13
1482546962345247,-4,-15,48,-11,-16,-19,-98,-46
1482546962345247,-37,-10,-34,-46,22,5,92,62
1482546962357305,6,15,55,41,-11,-2,2,-15
1482546962357305,15,11,19,47,-3,1,-100,-24
1482546962366378,-4,-2,-51,-64,-20,-5,80,62
1482546962366378,-1,5,127,98,19,-8,-50,-13
1482546962380909,3,-1,-38,-107,-4,8,-38,-1
1482546962380909,0,6,30,-28,1,-4,39,6
1482546962381907,14,-6,47,75,49,40,35,6
1482546962381907,-15,-29,-54,-25,-26,-26,-6,-5
1482546962404043,4,11,9,32,-11,-10,107,44
1482546962404043,7,9,95,16,-37,-9,-55,-17
1482546962405041,-6,-10,-48,20,41,-2,-42,-20
1482546962405041,6,0,-38,-91,-1,19,44,-2
1482546962418038,-22,-13,37,59,-4,-11,-63,-27
1482546962418038,-3,-6,-29,-52,-8,3,25,6
1482546962426064,-4,-9,-17,10,-28,-29,-62,-11
1482546962426064,6,-1,-19,41,-6,3,-3,-1
1482546962449075,11,8,-56,-31,10,2,13,1
1482546962449075,-6,-1,19,4,20,6,2,-7
1482546962450058,-11,0,-16,-2,-9,-4,-2,-7
1482546962450058,8,8,29,10,-3,-2,-28,-15
1482546962464087,23,-5,-36,-24,-2,3,15,8
1482546962464087,-21,-4,2,21,-2,-5,0,1
1482546962465083,2,-5,-3,-27,-3,1,-5,-6
1482546962465083,-14,-29,-21,29,-10,-4,-82,2
1482546962478116,-8,15,-17,40,2,7,36,-28
1482546962478116,9,18,68,3,1,-7,-56,-7
1482546962486321,-6,-12,-36,-34,-8,-7,-66,-41
1482546962486321,21,22,50,15,8,14,40,58
1482546962500503,8,-3,-32,9,13,11,26,38
1482546962500503,0,15,-63,-62,8,-1,-22,-12
1482546962501449,-3,-9,63,-45,-11,-9,6,-12
1482546962501449,-9,-3,65,52,-20,-15,-7,-27
1482546962524549,-11,0,-15,-1,-1,-6,-41,-17
1482546962524549,-3,-5,-43,-32,5,11,-9,6
1482546962524549,-7,-8,-54,-7,-2,1,98,56
1482546962524549,4,0,-18,-24,1,1,1,-1
1482546962546619,-16,-1,47,21,-9,-9,-14,-17
1482546962546619,4,-3,-1,-33,11,6,-13,3
1482546962547574,-27,-17,12,35,-17,-16,-4,-15
1482546962547574,-3,11,26,17,1,-1,-21,-26
1482546962560632,12,-2,2,-6,2,4,10,20
1482546962560632,-4,-13,-20,-6,1,1,20,5
1482546962561578,-3,3,-36,10,6,5,-5,-20
1482546962561578,18,15,9,-29,-5,-1,7,11
1482546962584271,-2,3,24,-22,0,-1,-6,6
1482546962584271,-5,-20,-22,45,-9,-7,17,-1
