timestamp,emg1,emg2,emg3,emg4,emg5,emg6,emg7,emg8
1485545685582080,0,-1,2,-3,1,-4,-3,0
1485545685582080,5,1,5,-3,-6,6,0,5
1485545685583097,-6,-4,-4,11,2,-4,-2,-2
1485545685583097,-3,-3,4,-5,2,-6,-2,-4
1485545685587095,5,2,-2,-4,-4,4,1,2
1485545685587095,1,1,6,3,1,-2,0,-2
1485545685590112,-3,-4,6,-6,-1,-3,-3,-3
1485545685590112,1,0,-8,-8,-3,2,1,2
1485545685593114,0,1,8,18,-2,-2,1,-1
1485545685593114,-1,-2,-5,-2,3,-5,-2,-2
1485545685601618,-1,4,13,-2,-2,-1,0,-1
1485545685601618,2,1,-3,-1,-5,1,-2,0
1485545685618143,-4,-5,-3,-12,-3,-3,0,-4
1485545685618143,-1,-1,-5,3,-3,-4,-2,-2
1485545685623152,5,3,-2,-1,-3,3,2,2
1485545685623152,0,1,1,-1,-1,0,-2,0
1485545685633142,-6,-1,-8,-2,2,-5,-3,-2
1485545685633142,2,-2,4,4,-3,1,-1,-3
1485545685654170,-2,0,-5,-5,-4,2,-1,5
1485545685654170,-1,-2,6,3,1,-2,-1,-4
1485545685656172,-1,0,1,-1,2,0,1,-1
1485545685656172,-5,-1,-5,-2,-2,2,-1,0
1485545685701224,-8,-2,-1,-1,-2,-3,-3,-7
1485545685701224,4,3,0,1,-7,4,-1,5
1485545685702225,-6,-1,-7,0,0,-4,-1,-3
1485545685702225,-5,-3,3,-4,4,-5,0,-3
1485545685702721,8,-1,-6,8,-2,5,2,12
1485545685702721,-19,-1,1,-6,1,-1,-1,-15
1485545685706129,-5,-4,-3,-4,2,-5,-3,7
1485545685706129,1,1,5,2,-4,1,1,-4
1485545685712136,1,-2,4,-4,-1,3,-1,-1
1485545685712136,-4,-1,-6,1,4,-6,-3,-1
1485545685720142,0,-1,1,3,-2,-2,-1,-4
1485545685720142,1,1,2,-14,-6,4,1,0
1485545685729137,-2,-5,-4,0,0,-1,-1,-3
1485545685729137,1,0,-1,-1,0,-3,0,3
1485545685743157,6,0,1,-1,-5,3,-1,-4
1485545685743157,-1,-2,-7,0,-1,-2,0,0
1485545685750151,-1,-4,-6,6,0,-5,-1,-5
1485545685750151,3,0,5,2,0,-3,-1,3
1485545685774179,0,2,1,1,2,1,-1,10
1485545685774179,-5,1,-5,-2,0,-1,-2,-7
1485545685775168,0,1,2,-4,-1,-1,2,0
1485545685775168,3,-1,0,7,-3,-1,-2,-3
1485545685789206,-3,-3,3,-5,-2,-2,-1,3
1485545685789206,1,2,-1,-1,-1,-3,-2,9
1485545685795209,-2,3,4,-4,0,-1,-1,-1
1485545685795209,3,-2,-1,-1,-4,-1,2,0
1485545685811709,-2,1,0,4,0,2,0,-8
1485545685811709,4,0,2,0,-4,-3,-3,2
1485545685813225,-7,-7,-8,-4,-2,3,1,-3
1485545685813225,2,1,-3,-2,2,-1,-2,-2
1485545685834237,-2,-2,-3,1,0,2,0,-5
1485545685834237,2,2,1,4,-1,0,0,-2
1485545685835738,-6,-2,1,-1,0,-2,0,1
1485545685835738,10,-4,-3,-7,-2,-1,-1,12
1485545685848754,4,-1,2,-2,1,0,3,-8
1485545685848754,-14,0,-4,4,0,0,-5,-5
1485545685855250,6,3,2,-4,-2,-3,0,1
1485545685855250,0,-2,1,-1,-2,1,0,0
1485545685871761,4,1,0,-2,-3,-1,-1,-2
1485545685871761,-2,-6,-3,25,-1,-1,-1,1
1485545685873262,4,1,2,-5,-3,-3,0,-2
1485545685873262,-5,1,0,0,0,1,1,-4
1485545685894277,-2,1,-6,2,-2,-1,-5,-3
1485545685894277,-1,-2,-3,-9,-1,2,0,-2
1485545685895778,0,2,0,2,-3,-1,-4,-2
1485545685895778,-3,-2,-6,1,1,-2,2,-4
1485545685908286,-3,-3,-3,-7,-2,-2,0,-1
1485545685908286,2,-3,-2,12,0,-1,-1,1
1485545685915304,2,3,8,-4,-1,-2,-3,-2
1485545685915304,-3,0,-2,-4,-2,0,-2,-2
1485545685931803,0,1,-5,-4,-1,1,-1,0
1485545685931803,1,1,-4,-10,-1,-1,-2,1
1485545685933305,-2,-2,-3,-3,0,-2,-1,-2
1485545685933305,0,1,2,-2,1,1,-1,-3
1485545685954319,-2,1,3,-4,0,-2,0,0
1485545685954319,0,0,0,6,1,-1,-1,-5
1485545685955822,-3,0,-6,-6,-1,1,-2,-3
1485545685955822,-2,0,-2,-5,1,-2,-2,-1
1485545685968831,-1,-2,3,-4,-1,-2,1,0
1485545685968831,0,-3,-2,0,-3,-3,-3,-1
1485545685975334,-1,-2,-2,2,-2,-2,1,0
1485545685975334,-1,-3,1,1,-3,-3,-1,-2
1485545685991845,0,1,-1,-6,-1,-2,0,-1
1485545685991845,0,0,-1,0,2,-1,2,-2
1485545685993346,-1,-2,-2,5,-2,-1,-4,-1
1485545685993346,-1,-2,-1,-2,0,0,0,-3
1485545686014367,-2,0,-2,4,-1,-1,-1,1
1485545686014367,2,-3,0,-5,-2,1,-1,1
1485545686015863,-2,-3,1,1,0,-1,-3,0
1485545686015863,-1,0,-3,-2,2,0,-3,1
1485545686028361,0,-1,2,4,-2,2,0,-1
1485545686028361,-3,-2,-2,-10,3,-1,2,-3
1485545686035376,2,-1,-1,-1,0,-1,-2,0
1485545686035376,0,-3,-1,-2,-2,-1,-3,0
1485545686051892,1,-1,-1,4,1,-2,2,0
1485545686051892,-1,-1,-3,-5,-2,-1,-2,0
1485545686053389,-2,0,-4,-4,-1,0,1,0
1485545686053389,0,1,1,-2,-3,0,-1,0
1485545686074444,-2,-3,0,-3,0,-2,0,-1
1485545686074444,-2,-3,0,-4,-1,-1,-2,0
1485545686075905,-2,-3,-2,11,0,-2,2,1
1485545686075905,0,0,-1,-3,-2,-2,-3,-2
1485545686087903,1,-1,-1,-2,-1,0,-2,-1
1485545686087903,3,1,4,2,-4,0,0,-1
1485545686096920,-2,-1,-1,-6,4,3,-1,-1
1485545686096920,-2,-1,-3,3,-4,0,-2,-2
1485545686111920,1,-1,-2,-2,1,-1,0,-1
1485545686111920,-2,-1,0,-2,0,0,-2,1
1485545686113448,-3,-1,3,-4,-3,0,-1,-1
1485545686113448,2,2,1,-3,-1,1,2,-2
1485545686133945,-4,-3,-5,-3,-2,-2,-4,-2
1485545686133945,1,-1,-6,0,-2,-2,-1,-1
1485545686135947,0,-1,2,0,0,-3,-1,0
1485545686135947,-3,-1,2,-9,-2,2,1,0
1485545686147957,2,-1,-1,2,1,0,1,-2
1485545686147957,-3,-1,2,9,-2,-3,-5,-2
1485545686157468,4,2,1,-8,-3,-1,0,-2
1485545686157468,-1,4,0,5,1,-3,-3,0
1485545686171973,-4,-2,-5,0,-2,1,0,-2
1485545686171973,0,0,-3,-18,-2,-1,-1,0
1485545686177978,-1,1,-1,7,-1,0,-1,-2
1485545686177978,-1,-4,3,-3,-1,-1,0,-1
1485545686193988,1,0,-2,-2,0,-3,-1,3
1485545686193988,-3,-1,8,-5,-1,2,0,-2
1485545686195990,-2,0,0,8,-1,-1,-1,-1
1485545686195990,-2,-1,-4,0,-1,-1,-1,-1
1485545686207998,1,0,0,-2,-3,-2,-2,1
1485545686207998,2,2,-3,-5,-2,-2,-1,1
1485545686216995,-1,-2,-2,-4,0,-3,0,-2
1485545686216995,-2,-1,-3,6,1,1,0,-2
1485545686231514,-1,-1,3,1,-4,-1,-1,1
1485545686231514,-1,0,0,2,-2,0,0,-1
1485545686233516,1,0,1,0,-2,0,1,0
1485545686233516,-1,-1,0,1,2,-1,0,3
1485545686254030,0,-1,-5,-4,-3,-1,-1,-1
1485545686254030,-4,-1,0,-1,-2,-2,-1,-2
1485545686256045,-2,-1,-5,-2,0,-1,-1,-1
1485545686256045,-2,-1,-1,-6,-2,0,-1,-2
1485545686268049,-4,3,-2,18,1,-4,-1,-1
1485545686268049,2,1,-2,-1,1,0,-2,0
1485545686277046,-4,-2,1,-2,1,-1,0,-2
1485545686277046,1,-1,0,8,-1,0,-3,-1
1485545686291547,1,-1,-1,-11,-3,-1,-1,-1
1485545686291547,0,-3,-2,3,4,-1,1,0
1485545686293047,0,-3,0,-2,-4,-1,-2,0
1485545686293047,0,-2,0,2,2,-1,-1,-4
1485545686314062,2,-1,4,-5,-1,-1,0,-1
1485545686314062,-3,-1,-1,2,-1,-2,0,0
1485545686315563,0,-1,-3,-5,-2,3,0,1
1485545686315563,0,-2,-3,0,-4,-3,-1,-1
1485545686328072,-1,0,-2,-3,-1,-2,-1,-2
1485545686328072,4,-2,2,-6,0,-3,0,-1
1485545686337078,-1,-1,-5,0,3,-1,-4,-1
1485545686337078,-2,1,1,-1,-2,0,1,-3
1485545686351588,-4,-2,2,0,-1,-2,-1,-2
1485545686351588,1,1,0,1,-1,0,-1,0
1485545686353610,1,-2,3,-1,0,-2,0,0
1485545686353610,2,0,-4,-9,-2,-2,-1,1
1485545686374104,1,-1,0,-1,0,3,-1,-1
1485545686374104,-2,-2,-3,1,-5,-2,-1,-1
1485545686375605,1,-1,2,0,-2,1,2,0
1485545686375605,-1,2,-4,-4,-3,-1,1,-1
1485545686387614,-2,-2,5,3,0,1,-4,-2
1485545686387614,0,-1,-8,-2,2,2,0,-3
1485545686396621,1,2,1,3,-3,-4,-2,-2
1485545686396621,0,-4,2,-4,-2,0,0,0
1485545686411632,-2,0,-5,1,-3,-1,-1,-3
1485545686411632,-4,-1,-3,3,-2,-1,-1,1
1485545686413133,0,0,-3,-4,0,-2,1,-1
1485545686413133,-1,-2,0,1,1,-3,0,-1
1485545686434148,2,-3,0,-2,2,0,-1,1
1485545686434148,-2,-1,-2,-3,3,-3,-2,-1
1485545686435648,-3,1,-1,2,-1,0,-3,-2
1485545686435648,1,1,2,8,1,-1,-1,1
1485545686447657,0,-2,-9,0,0,1,-1,-1
1485545686447657,-2,1,7,3,-1,1,-1,-1
1485545686456664,1,-2,0,-4,-1,-1,-1,-2
1485545686456664,-3,-4,5,-5,-2,0,-2,-1
1485545686471673,-3,-3,-3,11,-2,-3,-2,-3
1485545686471673,1,0,-2,-7,-3,-1,1,-1
1485545686473174,0,0,-4,7,-2,-2,0,1
1485545686473174,1,-3,0,0,3,-1,-2,-2
1485545686494190,0,3,3,-3,-2,0,0,1
1485545686494190,-3,-1,3,-2,-3,-2,-1,-1
1485545686495691,-1,-2,3,-6,-3,2,-1,0
1485545686495691,-1,0,-4,3,-1,-3,1,-1
1485545686516798,2,-2,-2,-3,3,-1,0,1
1485545686516798,2,-1,-3,-1,-1,3,-1,-3
1485545686518299,0,2,-3,-4,-3,-1,0,1
1485545686518299,-1,1,0,0,-1,-1,-1,0
1485545686531821,-4,1,0,-5,1,0,2,0
1485545686531821,1,-4,0,16,0,-1,-1,0
1485545686533322,0,2,-3,3,2,-2,-1,-2
1485545686533322,-3,0,-3,2,-5,4,2,1
1485545686554334,0,0,-1,-19,0,-1,-1,-1
1485545686554334,-3,-2,0,0,1,0,0,-2
1485545686555835,1,-1,2,-1,1,0,-2,-1
1485545686555835,3,-1,-2,-1,0,-2,-2,1
1485545686576850,0,-2,-1,4,-3,-1,0,0
1485545686576850,-1,1,-2,-6,-3,-2,0,0
1485545686578341,-3,-3,-1,-2,0,0,0,-2
1485545686578341,-2,1,-1,13,0,-2,-1,-2
1485545686591852,-1,-3,-1,2,-1,-1,0,-2
1485545686591852,0,1,-3,-10,-1,-2,-1,2
1485545686593352,-1,-1,-2,-2,-2,-2,-2,0
1485545686593352,-1,-3,0,1,1,0,-1,-4
1485545686614368,1,1,3,1,-1,-1,0,0
1485545686614368,2,-1,4,-1,-3,-1,0,-1
1485545686615868,0,0,-1,-1,-2,-1,1,0
1485545686615868,-1,0,-2,-7,-2,-2,0,-1
1485545686636889,-4,-3,-1,-1,-1,-1,-3,-1
1485545686636889,-1,-2,1,-3,0,0,1,0
1485545686638385,-1,-2,-1,-1,1,-1,-2,0
1485545686638385,0,2,-1,-3,0,-1,1,-1
1485545686650893,1,-2,-1,1,-3,-2,0,0
1485545686650893,-1,3,-2,1,1,1,-2,0
1485545686657898,-4,1,-4,-1,-3,-1,0,-2
1485545686657898,1,0,-1,-7,-2,0,-1,-2
1485545686672909,-6,0,-2,-5,0,1,1,0
1485545686672909,0,-1,3,-1,-2,-2,-1,0
1485545686681914,-1,0,0,4,-1,0,-1,0
1485545686681914,-2,0,-1,-3,-2,0,-1,1
1485545686696925,1,0,3,-11,2,-1,-1,-1
1485545686696925,0,0,-4,2,-3,0,-1,-3
1485545686698426,0,1,-1,-1,-1,-2,-2,-2
1485545686698426,-1,-3,1,0,3,1,0,-1
1485545686718940,1,-1,-10,5,-2,0,1,-1
1485545686718940,0,2,1,3,1,-3,0,-2
1485545686720942,0,0,0,-3,-2,0,-1,-1
1485545686720942,-3,-2,-1,-2,-2,-1,-3,-2
1485545686732963,-1,-1,2,3,-2,0,-2,-3
1485545686732963,-2,-4,0,-5,-1,-2,-2,0
1485545686741969,3,-3,-1,0,2,1,2,-3
1485545686741969,-1,-2,-1,-3,-1,1,1,0
1485545686756479,0,3,2,2,-3,-3,-1,1
1485545686756479,-1,-3,0,0,1,-2,-2,-1
1485545686758480,0,0,2,-3,-3,-3,-2,2
1485545686758480,1,1,-2,-2,0,-1,-2,-2
1485545686778997,0,0,-6,-5,0,-4,-3,-1
1485545686778997,-3,-4,1,8,-2,-1,-1,-2
1485545686780984,-1,-1,-4,3,-2,0,1,-1
1485545686780984,-3,-1,-1,-8,0,-2,0,0
1485545686793009,-1,-4,0,5,2,1,-1,-1
1485545686793009,-1,2,4,-7,-2,-2,1,-1
1485545686802016,-2,-2,1,3,1,-1,0,-2
1485545686802016,0,-1,-3,2,-4,-1,1,-1
1485545686816521,-3,-1,-4,-5,0,0,-2,-3
1485545686816521,-3,-3,-3,-4,0,1,-4,0
1485545686818011,0,-2,5,2,-1,-2,-2,-1
1485545686818011,1,1,3,-1,-1,-3,-1,0
1485545686839038,-2,-1,0,2,-2,1,-1,0
1485545686839038,1,0,-3,-4,1,0,0,-1
1485545686841037,0,-1,-1,-7,-1,1,0,-1
1485545686841037,-1,-3,-5,15,-2,0,-1,-1
1485545686853047,2,-1,2,-3,-2,-5,0,0
1485545686853047,-3,1,1,6,0,-4,-2,-2
1485545686862056,0,-1,-4,-10,0,-3,0,1
1485545686862056,-1,0,0,-1,0,-1,-1,-1
1485545686876564,-2,-3,0,2,0,0,-1,-1
1485545686876564,-1,0,-4,1,-3,2,-1,2
1485545686878054,0,2,2,2,-1,1,0,-2
1485545686878054,-3,-2,-1,-10,1,-3,0,0
1485545686899080,0,1,-3,-4,-1,-1,0,0
1485545686899080,0,0,-1,-5,-4,0,0,-1
1485545686901068,-1,1,0,-3,-2,-1,-2,-2
1485545686901068,-3,1,-1,-4,0,-3,-1,-3
1485545686912587,1,-1,3,1,-3,2,0,-1
1485545686912587,-1,-3,-5,-2,0,1,3,-1
1485545686922084,-1,-4,-1,-1,-1,-1,-2,-1
1485545686922084,2,1,3,-2,-2,-1,-2,-1
1485545686944139,-4,0,-2,-3,-2,-2,0,0
1485545686944139,-3,-2,0,0,1,0,0,-4
1485545686945642,-1,1,0,3,-1,1,0,0
1485545686945642,3,-2,-4,-1,-1,0,-3,0
1485545686959150,2,-3,1,-1,0,-4,0,-1
1485545686959150,-1,1,-5,0,1,-3,-1,-1
1485545686960661,-3,0,0,-6,1,0,1,0
1485545686960661,0,-3,0,0,-1,0,1,2
1485545686972670,0,0,-4,-2,-2,-1,0,-1
1485545686972670,0,3,-1,-1,-2,0,-2,0
1485545686981681,0,-3,0,-3,-1,-2,-2,-1
1485545686981681,-3,0,2,-1,1,1,2,0
1485545686996692,-2,-2,0,-2,-2,-2,1,-2
1485545686996692,1,0,0,-1,-1,-2,1,0
1485545686998178,1,1,1,0,-1,-3,-2,-2
1485545686998178,-2,-1,-1,1,-3,-1,-1,-1
1485545687019193,0,-3,-6,-3,-1,1,-4,-1
1485545687019193,2,-1,2,-9,0,0,0,-1
1485545687020694,-4,-2,-1,15,1,-2,0,-2
1485545687020694,-2,-1,-2,-4,-3,-3,-1,0
1485545687041721,0,-3,2,-2,-2,0,-1,-1
1485545687041721,0,-3,0,-2,1,-1,-3,-1
1485545687043222,1,-1,-2,-4,-2,-2,-1,1
1485545687043222,1,-1,-1,2,-3,1,-2,0
1485545687056732,-2,1,-3,6,2,0,-2,0
1485545687056732,0,1,-1,-6,-4,-2,0,-2
1485545687058221,-2,-1,2,-1,-2,1,1,0
1485545687058221,-2,1,-2,-3,-2,-1,-2,-3
1485545687079247,-2,-2,-1,13,1,-2,-3,-2
1485545687079247,1,-2,4,-3,-1,0,-2,2
1485545687080749,-1,1,0,-2,-2,-1,-1,0
1485545687080749,0,-1,-5,-2,-2,1,1,-1
1485545687101764,-1,1,2,-4,0,-2,0,-1
1485545687101764,-1,-2,0,3,-2,-1,0,0
1485545687103264,0,2,1,-1,-1,1,-1,-1
1485545687103264,-2,-1,2,2,2,-5,-1,-1
1485545687116762,1,2,-1,-3,-2,0,-1,-2
1485545687116762,-2,-3,0,2,-1,-2,-1,1
1485545687118262,0,1,-2,-11,-1,-2,-2,-2
1485545687118262,-1,0,-3,3,-1,0,-2,-2
1485545687139289,-2,-4,-11,-7,-2,0,2,-1
1485545687139289,0,2,-1,-1,-1,-2,-1,0
1485545687140791,1,-2,2,-4,-2,0,-1,0
1485545687140791,0,-1,-1,-3,-2,-1,-1,0
1485545687161806,0,-3,2,-3,-1,-1,-1,0
1485545687161806,-3,-2,-2,0,-2,-1,-2,-1
1485545687163306,-1,0,-2,2,2,0,0,-2
1485545687163306,-1,-2,-3,5,-1,-1,-1,-1
1485545687175816,-1,2,4,-1,0,-1,1,-1
1485545687175816,3,1,-2,-1,-1,-2,-2,-2
1485545687182825,-1,-1,1,-5,1,1,2,1
1485545687182825,0,-1,-1,-7,0,0,0,0
1485545687199332,0,0,1,0,-2,-2,-1,-2
1485545687199332,1,-1,-3,-6,-2,-1,1,-1
1485545687200831,-1,-5,0,1,-2,-1,-1,-1
1485545687200831,-3,0,-5,-7,-2,-1,-1,-1
1485545687221854,-1,-2,2,4,1,-1,-1,0
1485545687221854,-1,-1,-2,0,1,-1,0,0
1485545687223347,0,0,-2,-3,-2,-2,-1,-1
1485545687223347,0,-2,-2,1,-2,0,1,-4
1485545687235887,1,0,1,3,0,2,-1,-1
1485545687235887,-2,-4,-2,2,0,-1,0,-2
1485545687242860,-1,1,-4,0,-1,-2,-1,-2
1485545687242860,-2,0,2,1,0,0,1,1
1485545687259377,-2,-1,0,-2,-2,-3,-2,-2
1485545687259377,-4,-3,1,-3,-2,-1,-1,-2
1485545687260873,-2,-2,-4,9,-1,0,0,1
1485545687260873,-2,-2,0,-6,1,0,-1,-2
1485545687281894,-2,-1,-1,2,-1,0,-1,1
1485545687281894,1,-1,0,3,-2,2,2,3
1485545687283389,-2,0,0,-2,-2,-1,-1,0
1485545687283389,0,-1,-1,-2,-1,-2,0,-2
1485545687295904,2,-1,3,1,0,0,-2,-1
1485545687295904,1,0,-1,-2,-3,-1,-3,-1
1485545687302902,0,-3,-4,-1,0,-3,-1,-1
1485545687302902,1,1,-4,1,0,-2,1,2
1485545687319414,1,-1,-4,-2,1,1,1,-3
1485545687319414,-2,-2,-1,-1,-1,1,-1,-1
1485545687320920,-1,1,-2,-3,1,-4,-2,0
1485545687320920,-1,-2,1,-3,-3,0,-2,0
1485545687341933,-1,-1,1,-7,-1,-2,0,1
1485545687341933,-1,0,-3,4,-2,-2,1,-1
1485545687343435,0,0,3,-2,-2,1,-2,-2
1485545687343435,0,0,-1,0,-3,-1,0,0
1485545687355931,-3,2,-1,1,1,1,1,-1
1485545687355931,-1,1,4,-3,-2,0,2,-2
1485545687362945,2,-1,-3,-3,-1,-1,-1,1
1485545687362945,-2,0,0,2,0,-1,0,1
1485545687378956,1,0,-4,-2,-2,-1,-1,-1
1485545687378956,-2,-1,-2,0,-1,-1,-1,0
1485545687380958,-1,-2,-4,1,-1,-1,0,-2
1485545687380958,-1,1,2,-6,-1,-1,1,-1
1485545687401463,0,0,-4,-2,-3,-1,0,-2
1485545687401463,2,1,-1,0,-3,-1,0,0
1485545687403465,-4,-1,1,-2,0,-2,0,-2
1485545687403465,-2,0,-2,-3,-2,-1,-1,-2
1485545687415973,-2,-1,-2,-4,-2,-1,-1,0
1485545687415973,0,-4,-1,4,1,-1,-3,-1
1485545687422978,-2,-2,-1,-5,-2,-1,-1,1
1485545687422978,0,1,3,1,-1,1,-1,0
1485545687438990,-1,-4,-3,6,-1,-1,0,-2
1485545687438990,-4,1,0,-1,0,-1,-2,-1
1485545687441000,0,0,-4,-6,-2,2,0,-1
1485545687441000,-3,-7,-3,17,-2,-3,-1,-1
1485545687461506,1,5,-2,-3,-3,0,-1,-1
1485545687461506,-1,1,-4,-3,-1,1,-2,0
1485545687463516,-1,0,2,0,-4,-3,-2,-2
1485545687463516,0,1,-2,-3,1,-1,-1,-2
1485545687476015,-3,-3,1,4,1,-3,0,1
1485545687476015,2,-2,-1,-2,0,-1,0,-1
1485545687483020,0,-3,2,2,-2,0,-1,0
1485545687483020,0,0,-2,-2,-1,0,0,-2
1485545687499031,-3,-2,-3,-1,-1,-1,0,0
1485545687499031,-2,-1,0,-4,-2,-1,0,-3
1485545687501033,-3,-5,-2,-1,4,3,0,0
1485545687501033,-2,-3,2,10,-3,-1,-4,-2
1485545687521551,0,0,-1,1,0,-1,-1,0
1485545687521551,-1,-1,-2,-13,-3,-2,0,-2
1485545687523548,2,-1,1,-2,0,-3,-3,-2
1485545687523548,1,-2,-3,-3,2,-1,-1,0
1485545687535106,-1,-3,1,0,-3,1,-3,1
1485545687535106,-3,1,-2,3,2,1,-1,-1
1485545687544102,0,-3,0,2,-2,-2,1,-1
1485545687544102,-1,2,1,-9,-2,-1,-1,0
1485545687559121,-2,-4,0,0,3,-2,-1,-4
1485545687559121,-1,-1,-3,4,-1,-2,-2,1
1485545687560622,-1,2,0,-3,-3,-1,0,0
1485545687560622,1,-1,0,-7,1,-1,0,1
1485545687589141,-3,-3,-2,11,-1,-2,-3,-3
1485545687589141,0,1,3,-1,-1,-1,-1,0
1485545687590643,-1,1,-1,0,-3,-1,0,0
1485545687590643,-2,-2,-1,-5,-1,-2,-1,-1
1485545687595146,2,2,3,-6,0,-2,-1,0
1485545687595146,-3,-2,-5,3,0,-1,-1,-1
1485545687604143,-2,0,1,3,-1,-2,-1,-2
1485545687604143,1,-3,-2,-3,-1,0,-1,-1
1485545687619163,-1,-3,2,-6,0,0,1,-2
1485545687619163,0,0,0,2,0,-2,-1,-1
1485545687620669,-2,0,1,-1,1,-3,-1,-2
1485545687620669,0,-2,-1,2,0,-1,0,1
1485545687641680,-1,1,0,-1,-3,0,-5,-2
1485545687641680,0,1,-1,-3,-1,-3,-2,1
1485545687643180,0,-1,-3,0,-3,-1,-2,-1
1485545687643180,1,0,-3,-1,-1,-1,0,-2
1485545687655188,1,0,0,-1,-1,-1,2,0
1485545687655188,-1,0,-1,0,-4,-1,1,-1
1485545687664185,2,-3,1,1,1,1,0,0
1485545687664185,0,-2,-5,-1,-3,-1,-3,-1
1485545687679195,0,0,-3,-11,-2,-1,-3,-1
1485545687679195,1,-1,1,3,0,0,-2,1
1485545687680698,-2,-1,-4,-2,-1,-2,0,1
1485545687680698,-2,1,-3,6,0,-2,-1,0
1485545687701713,-2,-1,2,-1,-1,-1,1,-2
1485545687701713,-1,-3,-4,-3,0,-1,-1,-2
1485545687703213,0,0,-3,-1,0,0,-2,-2
1485545687703213,-2,-2,1,-3,0,-1,-1,1
1485545687715222,0,1,-8,3,1,1,0,-1
1485545687715222,-1,1,-2,-3,1,-1,0,-2
1485545687724228,0,0,0,3,-2,-1,0,-3
1485545687724228,1,-2,-1,0,-2,-1,0,0
1485545687739238,-1,-2,-1,-1,-3,-2,0,1
1485545687739238,-1,-3,1,-1,-3,-1,-1,0
1485545687740739,-1,3,-1,0,-2,1,-1,-1
1485545687740739,0,2,0,-4,-1,0,0,0
1485545687761754,-2,0,-1,2,1,-1,2,-1
1485545687761754,1,-1,-2,-1,-2,0,-3,0
1485545687763255,1,-2,0,-4,-2,2,-3,1
1485545687763255,1,-1,15,2,0,-2,-2,-2
1485545687775305,-3,0,-17,-10,-2,-4,0,-1
1485545687775305,-1,2,2,1,0,0,1,-1
1485545687784311,-3,0,-3,0,-1,-3,-1,-3
1485545687784311,-4,1,0,-5,-1,1,-1,-1
1485545687799321,2,-2,-1,2,2,0,-1,-1
1485545687799321,-1,-2,-1,-1,0,0,-2,-1
1485545687800821,-1,0,-2,-2,-1,-2,-1,1
1485545687800821,0,-2,-3,2,1,-1,1,-4
1485545687821837,-1,-3,1,-5,-2,-1,-2,-2
1485545687821837,-2,-1,-3,6,0,0,-1,1
1485545687823338,0,0,0,-3,0,0,2,0
1485545687823338,-3,-4,-8,10,-3,-3,-2,-2
1485545687835346,-2,0,-2,0,-3,-1,2,0
1485545687835346,1,-2,4,-4,0,-4,-2,-1
1485545687844365,-3,0,2,-2,-1,-2,-1,0
1485545687844365,-2,1,-6,-6,-3,-2,-1,0
1485545687859393,0,0,0,1,-3,-1,-3,-3
1485545687859393,-2,0,1,0,-3,-1,0,-1
1485545687860877,2,-2,2,-1,-3,1,0,-2
1485545687860877,-1,-2,-4,-2,-2,0,-1,1
1485545687881889,-2,2,5,5,1,-1,0,1
1485545687881889,3,0,-1,-5,-2,0,-1,-1
1485545687883391,-1,-2,-4,15,0,-3,-3,-3
1485545687883391,-2,3,0,-7,1,-1,-1,-2
1485545687895437,0,-2,-3,0,-2,-2,-1,-2
1485545687895437,-1,0,-1,-1,0,1,0,-2
1485545687904440,-3,-3,-1,-4,0,-2,0,-1
1485545687904440,1,0,-3,-1,0,2,1,-2
1485545687918980,1,-3,-1,-1,-1,0,-1,1
1485545687918980,-2,-2,-3,2,0,-3,-2,-1
1485545687920955,-2,-3,-5,-4,-1,-2,-2,-1
1485545687920955,-1,-1,0,-11,-1,1,1,0
1485545687941465,-4,0,-1,2,-1,1,0,-1
1485545687941465,-1,-2,-1,0,-2,-2,0,-1
1485545687943466,0,2,0,-5,-2,-1,1,0
1485545687943466,1,-2,0,1,-2,-2,-2,0
1485545687963981,-4,-1,0,-6,2,-3,-2,-1
1485545687963981,0,0,-11,-3,-2,0,-1,2
1485545687965982,-2,-4,-12,4,-1,-1,2,-1
1485545687965982,1,-2,5,-2,-2,-1,0,-3
1485545687978981,0,-2,3,0,-1,0,-2,-1
1485545687978981,1,0,1,0,-1,0,0,-3
1485545687980997,-1,-2,-1,-5,-2,-1,-2,-2
1485545687980997,-1,0,-5,4,-3,-1,-2,0
1485545688001549,-2,-3,-4,-5,-3,-3,-1,-1
1485545688001549,0,-1,0,0,2,-1,-3,-2
1485545688003034,5,3,9,8,1,-1,2,0
1485545688003034,-7,-5,-11,-25,-8,-3,-3,-3
1485545688024050,-7,-2,-1,14,1,2,-3,-3
1485545688024050,-1,0,3,-3,-1,-2,-1,-2
1485545688025567,0,1,2,1,0,-1,-1,-1
1485545688025567,-2,3,-2,-1,2,0,2,1
1485545688039071,7,-2,1,-2,-1,-2,1,-1
1485545688039071,-2,1,-7,0,0,1,1,-2
1485545688040560,-1,-4,5,-1,-1,0,-3,1
1485545688040560,2,0,3,6,0,-2,-3,1
1485545688061585,-4,1,-1,-8,-2,-1,0,-2
1485545688061585,0,-2,4,2,-2,1,1,-2
1485545688063087,1,1,-3,-6,-2,0,-1,-2
1485545688063087,-2,-3,2,4,0,-1,-3,-2
1485545688084108,2,2,1,-1,-1,-2,-2,0
1485545688084108,-2,-1,0,-5,-2,-2,0,0
1485545688085602,-1,3,0,-3,0,-1,0,0
1485545688085602,-1,-2,-5,0,0,2,-1,-1
1485545688099113,1,2,-2,0,-3,0,-1,-1
1485545688099113,-1,1,-1,3,-1,-1,0,1
1485545688105121,-4,-4,-3,-3,-1,-1,-2,0
1485545688105121,2,1,3,6,1,-4,0,-1
1485545688121628,0,-2,0,0,-1,-2,0,0
1485545688121628,-3,-1,7,2,-1,2,0,-2
1485545688123129,-2,1,-4,-1,-3,-1,1,0
1485545688123129,0,2,5,-3,-2,-1,1,-1
1485545688144144,0,-5,1,0,-1,1,-1,0
1485545688144144,0,-3,1,-3,-1,-2,-2,0
1485545688145645,0,-1,0,-9,-3,-1,-3,-2
1485545688145645,-2,-4,-2,11,-1,0,1,0
1485545688158655,-8,1,2,-5,-2,-3,-3,-2
1485545688158655,0,-1,-2,-2,0,1,0,0
1485545688165158,-2,-1,0,1,-1,0,-1,-2
1485545688165158,-1,0,-1,-7,-2,2,1,1
1485545688181670,4,0,-2,0,-2,0,1,0
1485545688181670,-2,-2,-3,3,-1,-2,-1,1
1485545688183174,-1,-2,1,-5,1,0,-2,1
1485545688183174,-2,1,-4,20,-3,-4,-1,0
1485545688204187,2,-1,3,-5,1,0,1,-1
1485545688204187,0,-1,-4,-3,0,-1,-2,-2
1485545688205687,1,1,0,0,0,-1,-2,-4
1485545688205687,0,-3,-6,-4,1,0,-1,-1
1485545688218696,2,1,3,-1,2,2,0,-3
1485545688218696,-1,-3,-6,-2,2,-1,-1,-1
1485545688225201,0,-2,-2,0,-3,-2,1,-2
1485545688225201,-1,-1,-1,-5,1,-1,-2,1
1485545688241712,0,2,-5,-2,-1,-3,0,-2
1485545688241712,-3,-1,-2,-1,0,0,-2,0
1485545688243215,-3,-3,1,0,-1,0,0,1
1485545688243215,-2,0,0,-6,1,0,0,-3
1485545688264228,-3,0,-4,6,0,-3,-1,1
1485545688264228,-1,2,1,-14,-2,-2,0,0
1485545688265735,-3,-1,-4,3,-2,-2,-2,0
1485545688265735,-2,-2,1,-3,-1,-2,-2,0
1485545688278739,0,-2,-3,-3,0,-1,-2,1
1485545688278739,1,-1,-2,1,-1,-1,1,-3
1485545688285243,-1,-1,0,2,0,0,0,-2
1485545688285243,0,-1,-1,-5,-1,-3,-1,-1
1485545688301755,-1,-2,0,-3,-3,-1,-2,1
1485545688301755,0,0,-8,1,-4,-2,-1,-2
1485545688303258,-2,-2,-2,-2,0,0,0,-1
1485545688303258,0,-1,-1,2,-1,-1,-2,1
1485545688331776,-4,-3,-5,9,0,-2,0,-1
1485545688331776,-1,0,0,-1,-1,0,-1,-1
1485545688333279,1,-1,1,-10,-1,-2,-1,-2
1485545688333279,-1,-2,-5,-5,-3,0,0,-3
1485545688338281,0,-1,-3,6,-5,-1,-3,-3
1485545688338281,-1,-2,-3,2,-1,-1,-1,0
1485545688345286,-1,-3,-4,-7,-1,-1,0,-1
1485545688345286,-2,0,-3,4,-1,0,-1,-3
1485545688361797,-3,-3,-2,-6,-1,-1,1,0
1485545688361797,0,-2,-1,4,0,2,2,-1
1485545688363298,2,1,0,-2,-2,-1,-2,0
1485545688363298,-3,1,-5,-10,2,0,-1,-1
1485545688384313,-3,-4,3,5,-5,-2,-3,0
1485545688384313,-3,0,0,0,-2,0,-2,1
1485545688385814,-1,2,2,-4,-3,-1,2,-1
1485545688385814,-1,-1,1,7,3,-1,0,-2
1485545688398323,3,-1,1,-7,-5,-2,-1,-3
1485545688398323,-2,-1,4,12,-1,-1,-4,0
1485545688405328,1,0,3,2,0,-2,-2,-1
1485545688405328,0,-1,-4,0,-2,-1,-2,-1
1485545688421840,-2,1,0,-21,-1,3,-1,0
1485545688421840,0,-4,3,5,1,-2,-2,-2
1485545688423346,-2,1,-2,5,-1,1,-1,-3
1485545688423346,2,2,0,4,-4,-1,1,-1
1485545688444346,-2,2,-3,-12,2,-1,-1,0
1485545688444346,1,1,-3,-11,-1,-1,1,0
1485545688445856,-1,0,-1,9,-4,-1,0,0
1485545688445856,-2,-6,2,-6,-2,-2,0,-2
1485545688457866,2,-1,0,9,1,-1,2,-1
1485545688457866,1,1,-3,-8,-1,0,-1,0
1485545688467372,-1,-3,1,23,-3,0,-2,-3
1485545688467372,-1,2,-1,-4,0,-2,-1,1
1485545688481872,-1,0,-5,-7,0,0,1,-3
1485545688481872,-3,0,-2,1,1,1,-1,-1
1485545688483373,1,1,-7,-12,0,-1,-1,0
1485545688483373,0,0,7,-4,0,-1,-1,-4
1485545688504401,1,-2,-2,9,-3,-1,0,-3
1485545688504401,1,3,4,-12,0,-3,1,1
1485545688505902,-4,-1,-2,1,1,-1,0,0
1485545688505902,1,-1,1,-23,-4,0,-3,-1
1485545688517908,-1,-1,-5,28,-5,-1,-2,0
1485545688517908,0,-1,-3,-1,0,0,-2,-1
1485545688526910,-1,0,-1,-3,0,0,0,-2
1485545688526910,-1,-2,0,-4,-1,2,-1,0
1485545688541914,-3,-5,-3,9,0,-3,-2,1
1485545688541914,0,2,0,-3,-2,-2,-2,-2
1485545688543428,-1,-2,1,-6,0,2,1,2
1485545688543428,-3,1,-2,3,0,-1,0,-1
1485545688563942,-1,2,1,-8,-1,1,-1,0
1485545688563942,1,0,4,5,-2,1,0,0
1485545688565943,0,-1,-3,7,-4,-4,0,0
1485545688565943,-1,1,5,-11,1,1,-1,-2
1485545688577952,-1,-1,4,7,1,0,-1,-2
1485545688577952,0,-1,-2,-1,4,-1,-1,-1
1485545688586962,-1,-2,-2,-6,-2,-1,-2,-2
1485545688586962,0,-1,-2,7,-3,1,-1,0
1485545688608977,-1,1,1,-4,3,0,2,2
1485545688608977,0,-2,0,-6,-3,-1,0,-1
1485545688610978,-1,-1,-2,-4,-1,-2,-3,0
1485545688610978,-2,1,-6,8,1,-3,-1,-2
1485545688623989,1,1,3,-9,1,0,1,-2
1485545688623989,-3,-2,-4,0,-4,-3,0,0
1485545688625992,-1,0,2,0,0,2,0,-2
1485545688625992,1,-2,-6,4,1,0,0,-1
1485545688637993,-1,0,-1,-13,-3,-2,-2,-1
1485545688637993,-1,-1,-2,15,1,-2,-1,-3
1485545688647000,-1,-3,0,-18,-3,0,-1,2
1485545688647000,-1,2,0,2,0,0,1,0
1485545688661509,1,1,0,-3,-2,-1,-4,-1
1485545688661509,-2,-6,-1,2,1,-2,0,1
1485545688663015,1,1,0,-15,-2,-1,-1,0
1485545688663015,1,-2,1,-3,-3,-2,-1,0
1485545688684014,-1,-2,-5,14,1,-3,-1,0
1485545688684014,-1,0,-2,-11,-3,0,-2,-1
1485545688686016,-3,0,1,7,1,-1,0,-2
1485545688686016,-2,-4,0,-3,-1,0,1,-1
1485545688706543,-1,-1,-3,-2,2,1,0,0
1485545688706543,2,-2,2,-25,-4,0,-2,-1
1485545688708049,-2,1,3,10,2,-2,-1,-1
1485545688708049,0,-1,-2,10,-4,-1,-1,-1
1485545688721551,-1,0,4,-1,1,0,2,-1
1485545688721551,-1,-2,2,11,-5,-4,-3,-3
1485545688723554,0,1,-3,-15,0,5,1,-1
1485545688723554,-2,0,6,6,-1,-3,-1,0
1485545688744066,-1,-2,-1,-24,3,-1,0,-1
1485545688744066,-1,2,4,18,-4,2,1,-1
1485545688746058,-3,-2,-6,-16,-5,-6,-3,-1
1485545688746058,-1,1,-5,-3,4,0,-2,0
1485545688758077,3,-3,-1,-19,3,-1,2,-2
1485545688758077,-7,-1,-6,11,-5,1,-1,-3
1485545688766573,2,-3,0,7,-1,-1,-3,-1
1485545688766573,3,1,-2,4,-1,1,-1,0
1485545688781593,-2,1,-1,7,1,-1,-2,0
1485545688781593,4,3,6,-14,0,-3,-1,2
1485545688783085,-7,1,0,12,-1,-1,-2,-2
1485545688783085,1,-4,-4,-5,2,0,1,1
1485545688804108,2,2,-1,12,-5,1,-1,0
1485545688804108,-12,-5,-7,-11,1,0,-1,0
1485545688805601,0,-1,10,16,-1,-5,-4,-3
1485545688805601,7,2,6,2,1,-2,1,-2
1485545688817619,-17,-5,-4,-5,-2,3,1,-1
1485545688817619,21,7,0,-7,3,-4,-1,-2
1485545688826616,-2,-9,-5,20,-4,-3,-3,0
1485545688826616,0,-1,-9,-12,-9,-2,-4,-4
1485545688842137,7,4,0,9,-2,-1,-3,1
1485545688842137,1,1,-3,-3,1,-1,1,0
1485545688843637,-9,-2,-1,1,-1,0,1,0
1485545688843637,2,2,2,11,0,0,0,-1
1485545688864151,-8,-9,-16,6,-3,-2,-3,-1
1485545688864151,-3,0,21,-3,-4,1,0,0
1485545688865653,-5,4,-3,-18,-4,1,2,3
1485545688865653,6,-5,-2,2,-4,-2,-1,1
1485545688877661,-18,2,1,-11,1,1,0,-2
1485545688877661,-11,-5,-3,-6,-1,2,0,-5
1485545688886672,14,3,-12,55,7,-3,-3,-3
1485545688886672,-10,-6,-4,4,2,-2,0,-1
1485545688901677,12,-3,4,-5,-1,-3,2,1
1485545688901677,-17,-3,-8,-6,4,3,3,4
1485545688903178,-42,-1,-1,-18,-4,-1,-5,-11
1485545688903178,7,1,1,2,-1,-1,-4,-5
1485545688924193,12,-6,-1,5,1,-2,0,5
1485545688924193,5,7,-1,3,-3,-1,0,2
1485545688925700,10,-4,3,-9,0,3,5,4
1485545688925700,-4,2,0,1,-2,-2,0,1
1485545688946711,3,-2,4,-10,-6,-2,-3,-4
1485545688946711,7,0,2,-1,-2,-2,0,0
1485545688948216,7,-2,-2,-5,-1,0,-1,-2
1485545688948216,-7,0,1,-9,2,1,-2,0
1485545688961721,19,4,2,4,-1,-1,2,-1
1485545688961721,-18,-7,-4,6,1,0,2,7
1485545688963211,-17,5,0,-16,-4,-1,-4,-10
1485545688963211,-28,-2,3,-7,-8,-2,-5,-5
1485545688984237,-17,-11,2,-13,0,-4,-3,-3
1485545688984237,27,4,-4,3,4,0,1,4
1485545688985737,21,4,5,7,-7,-2,5,29
1485545688985737,-17,7,-6,-30,-6,-2,-3,-22
1485545689006752,-10,0,9,-1,1,-4,-5,-2
1485545689006752,-19,-11,-12,-1,-1,-2,-3,-6
1485545689008253,35,15,7,1,4,0,3,3
1485545689008253,13,-6,-5,5,-3,0,4,16
1485545689029258,0,-8,-7,4,-5,0,-2,1
1485545689029258,5,5,8,-2,3,-1,-2,-32
1485545689030759,-2,-12,-20,1,-7,-2,0,-9
1485545689030759,9,4,7,5,7,1,1,3
1485545689044268,2,8,11,7,-1,-2,-5,-8
1485545689044268,-5,0,-8,-21,-6,-4,-5,-3
1485545689045770,6,-3,-2,3,4,-1,0,-1
1485545689045770,3,-1,0,1,2,-1,2,1
1485545689066784,-5,-5,-1,9,5,1,2,5
1485545689066784,-8,11,1,-2,-5,-4,-7,-31
1485545689068295,-2,-8,1,-13,1,-1,2,-4
1485545689068295,-11,-2,-9,10,3,-1,3,11
1485545689080804,19,-1,-2,-2,-3,1,1,2
1485545689080804,-11,-6,-1,4,-7,2,-9,-33
1485545689087809,-1,-2,-3,-7,4,-2,-2,14
1485545689087809,-2,-6,3,6,0,-1,1,11
1485545689104320,-4,8,-5,-3,-1,0,1,-22
1485545689104320,9,-2,-1,12,-1,-3,1,23
1485545689105822,-4,-3,-1,-4,2,1,-3,-10
1485545689105822,1,-5,-1,-6,-1,-1,-1,1
1485545689126836,-2,1,-2,2,-1,-4,0,7
1485545689126836,6,1,-2,7,4,-1,-2,-2
1485545689128338,-7,-2,8,6,-3,0,-1,-7
1485545689128338,8,2,-3,-5,-3,-1,-3,1
1485545689140846,-5,-3,-12,-8,-4,0,-1,-2
1485545689140846,7,0,14,-3,4,1,6,17
1485545689147852,-6,-2,-5,-3,-5,-2,5,13
1485545689147852,-9,-4,3,6,-3,-2,-3,-11
1485545689164370,-7,2,-4,5,-1,-4,-5,-9
1485545689164370,-5,-12,5,2,1,2,3,12
1485545689165869,1,2,-4,-7,-2,0,0,-6
1485545689165869,4,0,-1,4,1,-1,2,9
1485545689186884,0,-3,-2,-4,-3,-2,-1,-11
1485545689186884,4,1,-6,0,-2,-4,-5,13
1485545689188391,-6,-3,1,-4,2,0,-1,-6
1485545689188391,0,0,-4,1,0,0,-1,-12
1485545689200889,3,1,2,-6,1,0,5,20
1485545689200889,1,2,0,-1,-1,0,1,-6
1485545689207894,2,-3,-1,0,-4,-5,-16,-23
1485545689207894,-1,-1,-1,-4,-1,-2,0,6
1485545689223905,-2,-3,-2,4,3,-1,-3,4
1485545689223905,-1,0,-3,-1,1,0,2,8
1485545689225906,2,-1,-2,-3,0,1,3,9
1485545689225906,0,0,0,-1,-1,0,-3,-8
1485545689246927,-3,-2,5,0,-1,1,-1,1
1485545689246927,-3,-2,-6,2,-2,-1,2,10
1485545689248422,2,2,1,-3,2,1,-1,-4
1485545689248422,0,-3,-3,0,0,-1,-2,-5
1485545689260931,-5,1,-1,1,-3,1,-1,-1
1485545689260931,-1,0,-2,-1,-2,-3,-2,-2
1485545689267935,-1,0,2,-2,-2,-2,0,-2
1485545689267935,1,1,0,1,2,-1,-2,-4
1485545689283947,0,1,-4,-1,0,0,-1,2
1485545689283947,-2,-1,-2,-2,-1,3,-1,0
1485545689285948,-3,-1,-3,-1,-1,-2,2,-1
1485545689285948,1,-4,-2,-1,-2,-1,1,2
1485545689306462,0,-2,-1,-2,0,-1,0,-3
1485545689306462,1,-1,-2,-1,0,-3,-2,0
1485545689308480,-2,-1,-1,0,2,0,0,0
1485545689308480,0,-2,0,-1,-3,-2,0,0
1485545689320973,-2,4,-3,0,-2,-2,-2,-2
1485545689320973,-2,-2,0,0,0,-3,-3,-2
1485545689327978,-1,0,2,-2,1,-1,-1,1
1485545689327978,-1,1,-4,0,0,1,-1,-3
1485545689351494,1,-3,-4,-1,0,-1,0,-1
1485545689351494,2,0,-1,1,0,-1,-1,3
1485545689353497,-1,-2,1,0,0,2,1,1
1485545689353497,-1,-1,-2,1,-2,-1,-5,-1
1485545689366505,-1,-1,3,-1,1,0,-2,-1
1485545689366505,0,-3,-4,-3,-3,-2,1,0
1485545689368512,-3,0,-1,-2,-1,-2,-2,-1
1485545689368512,-4,1,-1,0,-4,-3,-2,-3
1485545689381015,-4,1,-2,1,-1,-2,-2,2
1485545689381015,-1,-1,-3,-1,-1,-2,-2,0
1485545689388020,1,0,-3,-2,-1,-1,1,-1
1485545689388020,-1,-3,-2,-2,2,0,0,-1
1485545689404021,-1,-2,-3,1,2,0,-1,-2
1485545689404021,-1,-3,-2,1,-4,-1,-3,-1
1485545689406023,-2,-1,1,-1,0,-1,0,-2
1485545689406023,1,-1,1,-3,-4,1,-1,0
1485545689426537,-2,-1,1,-1,-2,-2,1,0
1485545689426537,-3,1,-5,1,1,-2,-1,-2
1485545689428038,-1,0,-2,0,0,0,-1,2
1485545689428038,-3,-1,-3,-1,1,-1,-1,-2
1485545689440553,0,-2,0,-3,-1,-3,1,-1
1485545689440553,-3,0,-1,-2,-2,0,0,1
1485545689449553,0,0,1,-1,-4,0,-1,-2
1485545689449553,-2,-2,-2,-1,1,-2,0,-1
1485545689464064,-3,0,-5,-1,2,-2,-2,0
1485545689464064,2,-2,1,0,-1,-1,-2,-2
1485545689465565,-1,-1,-1,-1,-2,-1,-1,0
1485545689465565,-2,-1,3,-1,-1,0,-1,0
1485545689486580,-2,-1,-1,-1,-3,-1,-1,-3
1485545689486580,-4,2,0,-3,0,0,-1,0
1485545689488081,0,0,1,-3,-1,-1,0,-1
1485545689488081,1,-1,-3,-2,-2,-1,0,-2
1485545689500089,-4,-3,2,1,-2,0,-1,-1
1485545689500089,1,-3,-1,-1,-1,-2,0,0
1485545689509096,1,2,-2,-1,0,0,-1,1
1485545689509096,-3,-1,0,1,-1,-1,1,-2
1485545689531611,0,-1,3,-2,0,1,-2,-1
1485545689531611,-4,-2,2,1,-1,0,0,0
1485545689533112,-1,-3,1,2,-1,0,0,1
1485545689533112,0,-3,-1,-2,-2,-1,-1,-2
1485545689546622,2,-2,-4,0,0,0,0,-2
1485545689546622,-2,-1,3,-1,0,-3,0,-1
1485545689548123,-1,0,-2,-1,-2,-1,-3,-1
1485545689548123,-1,-1,-1,-1,-2,-2,-2,-3
1485545689560131,0,-1,-1,2,-2,-2,2,0
1485545689560131,-1,2,1,0,-2,1,-1,1
1485545689569138,-3,-3,0,-3,-2,-2,0,0
1485545689569138,2,1,1,-2,1,-1,-2,0
1485545689584149,0,0,1,-3,-2,0,1,-1
1485545689584149,0,2,-3,1,0,0,0,-3
1485545689585650,0,1,-2,2,0,-2,-2,-1
1485545689585650,0,0,-3,0,-2,-1,0,1
1485545689606665,-1,0,0,-4,-3,-1,-1,0
1485545689606665,0,-4,-4,-2,1,1,1,-1
1485545689608166,-1,3,-2,1,-1,-1,-2,-1
1485545689608166,-2,2,-5,0,-1,1,-1,-3
1485545689629181,-2,0,-1,-2,1,-4,-2,0
1485545689629181,-1,1,1,-2,-1,1,-3,-1
1485545689630682,-3,-1,1,-2,-2,2,-1,-2
1485545689630682,1,-3,-2,-1,0,-1,2,0
1485545689644204,-1,-1,0,0,-1,-2,1,-1
1485545689644204,1,1,-1,0,-1,-2,-3,2
1485545689645705,1,0,1,-1,-1,-1,-2,-1
1485545689645705,1,0,0,-2,-3,-2,-2,-1
1485545689666217,1,-2,-4,1,-1,-1,1,-1
1485545689666217,-1,-2,0,-1,0,0,-1,1
1485545689673727,-1,-2,0,1,-2,-2,0,0
1485545689673727,-2,-2,1,-2,-1,-2,-1,0
1485545689688232,1,-3,0,1,-2,1,1,-1
1485545689688232,-3,-1,-1,0,0,1,-2,0
1485545689689233,0,0,0,-1,0,-1,-1,2
1485545689689233,-1,0,1,-1,0,-1,0,-2
1485545689703743,2,1,1,0,-5,-1,-2,0
1485545689703743,-3,-2,-3,-1,-1,-1,0,-2
1485545689704243,-3,-4,2,-1,1,-1,1,-1
1485545689704243,-1,1,1,1,-3,-1,-2,1
1485545689725759,0,0,-1,0,1,0,-2,1
1485545689725759,1,-2,-1,-1,-1,-3,-1,0
1485545689726759,-1,0,-6,1,1,-2,-2,-1
1485545689726759,-1,-4,2,-1,0,0,0,-3
1485545689748274,-4,0,0,-1,-3,-3,-2,-1
1485545689748274,1,-2,-1,-2,-1,-1,-1,-1
1485545689749275,-1,0,0,1,0,0,0,0
1485545689749275,-3,-2,-1,1,0,-2,-1,-1
1485545689763291,-3,-2,0,0,0,2,0,-2
1485545689763291,-1,-3,0,0,-2,1,0,-2
1485545689764286,-1,-3,-2,-2,-2,-4,-1,-2
1485545689764286,-1,-2,2,0,1,-2,-1,-2
1485545689785801,2,1,-1,-3,1,1,-1,0
1485545689785801,-1,1,-4,1,0,0,0,0
1485545689786801,-2,0,-3,-2,0,0,1,-2
1485545689786801,1,1,-2,-1,-3,-1,-2,-1
1485545689808317,-1,-1,-2,-3,3,-2,-1,-2
1485545689808317,0,-1,-1,0,1,-2,-2,-2
1485545689809317,-1,-2,0,-2,0,0,0,0
1485545689809317,-1,1,-2,-1,1,2,-1,0
1485545689823327,-1,-1,0,-4,-3,0,-2,2
1485545689823327,-2,0,2,-2,-1,-1,1,-2
1485545689824329,-3,0,-2,-1,-1,0,-3,0
1485545689824329,-1,-2,-2,-2,0,-1,0,-1
1485545689845843,-2,-1,0,-1,0,-2,-2,-1
1485545689845843,2,-1,0,-2,-2,-1,0,-1
1485545689846844,-1,-4,-3,-1,-2,-4,-1,0
1485545689846844,1,-3,-2,-1,-3,-2,-2,-2
1485545689868359,0,1,-2,2,-2,-2,-1,-1
1485545689868359,-1,-2,-3,0,0,-1,-1,-1
1485545689869360,-1,-1,0,-2,-1,-1,-1,-2
1485545689869360,-2,3,-2,-1,3,-1,-2,-1
1485545689882870,-4,-1,1,0,-3,0,2,-1
1485545689882870,-3,-2,1,0,-3,-1,0,-1
1485545689890866,2,-3,-2,-2,0,-1,1,-3
1485545689890866,-2,-1,3,1,-2,-1,-1,0
1485545689905877,-2,-1,-1,-4,-1,0,-1,0
1485545689905877,-2,-3,-1,1,2,0,-1,-1
1485545689913382,-1,3,0,0,-1,1,-2,-1
1485545689913382,0,0,-2,1,-1,0,0,-1
1485545689928393,1,1,-3,0,1,-4,-1,0
1485545689928393,0,-3,-2,-1,-1,-2,-2,0
1485545689929393,1,1,1,-2,-1,1,1,-2
1485545689929393,1,-2,-1,-2,0,-2,-1,1
1485545689951409,-2,-2,0,-1,-3,-1,-1,-1
1485545689951409,-1,1,1,0,-1,0,1,-2
1485545689952409,-1,-1,-1,-1,-2,-1,0,-1
1485545689952409,1,1,1,0,-1,1,-1,-1
1485545689965955,-1,-1,-3,0,-1,-1,-2,-1
1485545689965955,1,1,-2,-2,-1,-1,0,0
1485545689966958,0,-4,0,2,-1,-1,0,0
1485545689966958,-1,-1,-1,0,-1,1,0,0
1485545689988473,-1,0,2,1,0,0,-1,-2
1485545689988473,-1,-2,0,-1,-2,-2,-3,-1
1485545689989474,-2,-2,-4,-2,0,-1,-1,-1
1485545689989474,-2,-1,0,-3,1,-1,0,-1
1485545690003483,1,1,0,1,-1,1,0,0
1485545690003483,1,0,0,-1,-3,-2,0,-1
1485545690004484,1,0,2,0,-1,0,-3,-1
1485545690004484,-1,-1,-2,-2,-3,-2,-2,-1
1485545690025999,0,0,-3,-2,1,-3,-2,-2
1485545690025999,0,-1,0,-1,1,-2,0,1
1485545690026999,0,-1,0,-2,0,-2,0,1
1485545690026999,-1,-1,-2,1,-2,1,-1,-2
1485545690048525,0,-2,0,-1,-1,1,-1,-2
1485545690048525,-1,3,-3,-2,0,-1,-1,-1
1485545690049024,-1,-1,-2,1,0,0,-1,-2
1485545690049024,-2,1,-3,0,2,0,-1,-1
1485545690063535,1,-2,-1,-1,0,-2,-1,-1
1485545690063535,0,-3,2,0,-2,0,-3,-1
1485545690064036,0,-1,0,-1,-2,-1,-2,0
1485545690064036,-2,-1,0,2,-1,-2,0,-1
1485545690086051,0,1,-2,-2,-1,2,-1,1
1485545690086051,-1,-3,-3,-3,-2,0,0,-3
1485545690086542,-1,0,-2,-2,-2,-1,-2,1
1485545690086542,4,-1,3,-4,-1,-1,-2,1
1485545690108566,-1,0,1,-1,-3,-2,-1,0
1485545690108566,-1,0,1,0,1,-1,0,0
1485545690109067,-3,-1,-1,-1,-1,-3,-2,-2
1485545690109067,-4,-2,-1,-1,-3,-1,0,0
1485545690123577,0,-1,-2,-1,2,0,-2,1
1485545690123577,-1,1,-3,-1,-2,0,-4,-1
1485545690124068,-1,-4,-4,1,1,-1,0,-4
1485545690124068,1,-3,-2,-1,0,-2,-1,-1
1485545690146154,-1,-3,-2,0,0,-3,-1,-5
1485545690146154,0,-1,0,0,-2,-1,0,-1
1485545690146654,-1,2,-6,-1,-3,-1,1,0
1485545690146654,-3,-2,-5,-1,-1,-1,0,-1
1485545690168676,-2,0,-3,-1,-1,-2,-2,-2
1485545690168676,-2,-2,-2,1,-1,0,-1,0
1485545690169170,-1,-3,-3,0,0,-2,-2,0
1485545690169170,1,1,0,0,-1,-1,1,-1
1485545690183686,-2,-1,1,-2,-4,2,0,1
1485545690183686,-1,-2,-3,0,-1,-2,-1,-2
1485545690184181,-2,-1,-2,0,1,-1,-1,-1
1485545690184181,-1,-3,-1,-1,1,0,0,-2
1485545690206187,-2,2,-3,-2,-2,-1,-2,-1
1485545690206187,-2,-2,1,-1,-1,0,1,-1
1485545690206688,-1,-3,1,0,-1,-2,-2,-1
1485545690206688,2,1,-2,-1,0,1,0,-1
1485545690236709,-2,-1,-3,0,2,-1,0,1
1485545690236709,-1,0,0,0,-1,1,0,0
1485545690237209,-1,3,3,0,-1,1,0,0
1485545690237209,-1,-2,1,0,-2,-2,-2,-2
1485545690242713,0,-3,0,-2,-4,0,0,-1
1485545690242713,-1,0,-4,-1,-1,0,-2,0
1485545690251219,1,-3,1,-2,-1,-1,2,-1
1485545690251219,-3,1,-2,-1,-1,-1,0,-1
1485545690274235,1,-1,1,-2,-1,-3,-1,0
1485545690274235,-1,-2,-2,-1,-2,-1,-2,-1
1485545690274736,-2,-1,0,0,-1,0,-2,-1
1485545690274736,0,0,1,-1,-1,-1,-1,-1
1485545690288244,1,-1,3,1,-2,-2,-3,-1
1485545690288244,-1,-3,1,-3,-2,-1,-1,0
1485545690289245,0,0,-5,0,4,0,1,-2
1485545690289245,-2,-1,-2,-1,-3,-1,0,-1
1485545690302791,1,1,3,1,2,1,1,1
1485545690302791,-1,2,-5,-2,-2,-2,0,-3
1485545690310797,-3,0,1,-2,-1,-1,-1,0
1485545690310797,2,-4,0,-2,-2,-1,0,-1
1485545690325808,-4,-3,-1,-1,0,2,-1,-1
1485545690325808,-1,-3,3,1,1,-1,-2,-2
1485545690326809,2,1,1,-2,-3,0,1,0
1485545690326809,-1,1,-2,-2,-2,-3,-1,-1
1485545690348336,-1,0,0,-4,-1,-2,-4,1
1485545690348336,1,0,-5,0,-1,0,2,0
1485545690349337,0,-1,0,-1,-3,1,-3,2
1485545690349337,-1,-1,3,0,0,-1,-1,-1
1485545690362843,-1,-4,-2,1,-1,1,0,-3
1485545690362843,-1,-1,1,0,-1,1,-1,0
1485545690370849,-1,2,1,-2,-1,1,-1,-3
1485545690370849,0,0,-1,-1,-4,-1,-1,0
1485545690385860,0,-2,-2,0,0,-1,-1,-1
1485545690385860,1,2,1,-1,0,-3,-1,0
1485545690386860,0,1,0,1,-1,-2,-1,-3
1485545690386860,-2,0,2,-1,2,0,1,1
1485545690408376,0,-3,-1,-1,-2,0,2,-2
1485545690408376,1,-1,1,-1,-3,-2,-2,-1
1485545690409376,-3,-1,1,-1,2,-1,0,1
1485545690409376,-1,0,-2,0,0,-1,-2,-1
1485545690422885,1,0,-6,-1,-2,-1,-1,0
1485545690422885,1,-1,0,-1,1,-2,-1,-1
1485545690430891,1,-2,-1,-2,-2,0,-1,-1
1485545690430891,-1,1,2,-1,0,-1,-1,-1
1485545690445902,-3,-1,-1,-3,1,-1,0,-2
1485545690445902,-2,1,0,0,-1,-2,-1,1
1485545690446903,0,0,-1,0,-2,-2,0,-3
1485545690446903,1,-1,-2,-2,1,-1,-1,-1
1485545690468418,4,1,1,1,-3,-3,-3,-1
1485545690468418,-3,3,0,-2,0,0,-1,0
1485545690469418,-1,-1,-2,-3,-3,-1,-1,-1
1485545690469418,-2,0,-2,-2,-2,-1,-2,-2
1485545690482927,-2,-2,-1,-1,-1,-2,0,-1
1485545690482927,-2,0,-3,0,-1,-2,-1,-2
1485545690490938,1,0,-2,-1,-2,-4,-2,-1
1485545690490938,2,-2,2,0,-3,0,-2,2
1485545690505949,-4,-1,0,1,0,0,-2,0
1485545690505949,-1,-2,-2,-4,0,-1,0,-2
1485545690506950,-2,-2,-2,0,-1,-1,-1,0
1485545690506950,0,-1,-4,0,1,-1,0,1
1485545690528465,0,-4,-2,-3,-1,-2,-1,0
1485545690528465,1,-1,-1,1,2,-2,-1,1
1485545690529466,-2,-4,-3,1,1,1,1,-1
1485545690529466,-2,-1,-3,0,0,-1,-1,-2
1485545690542970,-1,0,-5,0,-1,-2,-1,-2
1485545690542970,0,-2,0,-1,-3,-1,0,-1
1485545690550976,-1,-2,0,0,2,0,-3,-2
1485545690550976,-1,-1,-1,-1,-3,-1,-2,-2
1485545690565986,-1,-1,0,0,-1,0,0,-1
1485545690565986,0,-2,-1,-1,-2,0,0,-1
1485545690566987,1,0,-1,0,-1,0,-3,2
1485545690566987,-1,-5,-1,1,-2,1,-1,0
1485545690588508,-3,1,2,-2,-2,0,0,-1
1485545690588508,-1,-1,-3,-1,-1,-1,-2,-2
1485545690589507,0,-2,2,0,-2,-3,-1,-1
1485545690589507,1,-2,-3,-1,-3,1,-1,0
1485545690603018,-2,-1,-1,-1,0,1,0,-2
1485545690603018,-2,0,-2,-3,-1,0,-1,0
1485545690611024,-1,-3,-3,-2,-1,-2,1,-3
1485545690611024,-2,2,1,-2,-1,-2,0,1
1485545690626029,-3,0,1,0,1,-2,-1,-2
1485545690626029,0,-2,-1,0,0,-4,1,-2
1485545690626530,0,1,-1,0,0,0,0,-1
1485545690626530,-3,0,-3,-1,2,-1,-1,-3
1485545690648545,0,-1,-1,-1,0,0,-2,-1
1485545690648545,-1,-2,0,-3,-3,-1,-3,-1
1485545690649036,1,1,-2,-1,-2,-2,-1,-4
1485545690649036,-1,0,0,0,-1,-3,-1,0
1485545690663055,0,0,-3,0,0,0,-3,2
1485545690663055,-2,-4,-1,0,-3,0,-2,0
1485545690671060,-4,-2,0,-1,2,0,0,2
1485545690671060,3,-1,1,-1,-2,-2,-2,-1
1485545690686071,-1,0,-6,-4,-2,-2,-1,-1
1485545690686071,-2,0,-4,0,3,1,-1,-1
1485545690686562,-1,1,1,-2,-5,-3,-1,-1
1485545690686562,0,-3,1,-2,-2,-1,-1,0
1485545690708578,-1,2,1,-1,1,-1,-1,-2
1485545690708578,-1,-4,-1,-2,-1,-1,-1,-1
1485545690709079,0,0,-2,0,-1,-1,-1,-1
1485545690709079,-2,0,2,0,0,1,0,-1
1485545690722588,1,-3,-3,0,-4,-1,-1,-2
1485545690722588,1,0,2,-1,0,-2,-1,-2
1485545690731094,-3,1,-1,-3,-2,0,0,1
1485545690731094,-2,0,-4,1,0,-1,1,-1
1485545690746104,-1,-1,-1,0,0,-1,0,-1
1485545690746104,-1,1,-2,2,-2,0,-2,-1
1485545690746605,0,-3,-2,-1,0,3,-1,-2
1485545690746605,-1,-2,-1,-2,-2,-2,0,-3
1485545690768619,-1,1,0,-2,1,-1,0,0
1485545690768619,-3,-2,0,-1,0,-1,1,1
1485545690769121,-2,-2,2,0,-1,-1,-3,0
1485545690769121,-3,-2,0,-2,-2,0,-2,-2
1485545690791636,0,-3,0,-1,-2,-1,-2,-2
1485545690791636,0,-2,-1,-1,-3,-2,-1,-1
1485545690792637,-1,-2,-2,-2,-2,-1,-3,-1
1485545690792637,0,-1,-2,-1,0,0,0,1
1485545690806147,3,-3,1,-3,-2,-3,-2,1
1485545690806147,-3,-1,-2,0,0,1,-2,1
1485545690806647,1,0,-2,-1,-1,1,0,0
1485545690806647,-2,1,0,-2,-3,-1,0,0
1485545690828662,-1,-3,-1,0,0,-1,0,-1
1485545690828662,1,-1,-2,1,-2,-1,1,-2
1485545690829163,0,0,0,-2,0,-1,0,-2
1485545690829163,-1,-1,-3,-1,0,1,0,-1
1485545690851679,-2,-1,1,-1,-1,1,0,0
1485545690851679,0,-1,3,0,-1,1,0,0
1485545690852179,-1,-1,0,-1,-2,-2,0,-2
1485545690852179,2,-1,-1,-1,2,-4,-3,-1
1485545690874195,0,-2,1,1,0,2,0,0
1485545690874195,1,-3,-2,-1,0,0,0,-1
1485545690875195,-1,1,0,0,-1,-2,0,0
1485545690875195,-1,-1,-1,-1,-1,-4,0,-1
1485545690888715,-1,2,-1,-2,-1,-1,-1,0
1485545690888715,-2,1,-3,-1,0,-2,-3,-2
1485545690889205,-2,-4,-2,-1,0,0,-1,-3
1485545690889205,-1,-1,-4,0,0,0,0,-1
1485545690911721,0,-2,-1,1,2,0,1,-1
1485545690911721,-2,3,2,-2,0,-1,-4,-2
1485545690912222,-2,-3,0,-2,-2,-2,-1,2
1485545690912222,-1,-2,0,0,-2,0,0,-1
1485545690926232,-1,-1,1,-2,-1,-2,-2,-2
1485545690926232,-2,-3,-3,-2,1,0,0,-2
1485545690926732,0,1,0,2,-3,-1,0,0
1485545690926732,-2,0,-2,1,0,-3,0,-1
1485545690948247,-2,1,-2,-1,-1,-2,0,-1
1485545690948247,2,0,3,-1,0,-2,0,0
1485545690949247,-3,0,-4,-1,-1,1,-2,-1
1485545690949247,-1,-3,-1,-1,-1,0,-1,-2
1485545690970763,0,1,-1,1,0,-3,-3,0
1485545690970763,0,-2,-2,0,-3,-1,-1,1
1485545690971763,1,-2,-1,0,-1,-1,1,-1
1485545690971763,0,1,2,0,-3,1,-1,-1
1485545690985773,0,-2,-1,-2,2,2,1,-1
1485545690985773,-2,0,-1,-2,-4,0,-1,-2
1485545690986774,-1,-1,1,0,-1,-2,-2,-3
1485545690986774,-1,-1,-3,-2,1,-1,-1,0
1485545691008289,-3,2,-1,-5,-1,0,-1,0
1485545691008289,-1,0,-1,3,0,-2,0,0
1485545691009290,1,-1,-1,-3,-1,0,0,-1
1485545691009290,0,-3,0,-2,2,-1,-1,-2
1485545691030805,0,-1,0,2,0,0,-2,-1
1485545691030805,0,1,-2,-3,-2,-1,0,-2
1485545691031806,0,1,1,-2,-2,-2,-1,2
1485545691031806,0,0,0,0,-1,-1,-1,-1
1485545691045816,-2,0,0,-3,-1,-1,-1,-1
1485545691045816,1,-6,-3,1,0,0,0,1
1485545691046817,0,-1,-1,2,0,-1,-1,-2
1485545691046817,0,0,-2,0,-2,1,0,-3
1485545691068332,-3,-2,-1,-1,-4,0,-1,-1
1485545691068332,-1,2,2,-4,-1,1,-2,1
1485545691069332,0,0,-1,-2,2,-1,0,0
1485545691069332,-1,-1,3,-1,-1,-2,-1,1
1485545691090848,1,-2,-1,-1,-4,-3,-1,0
1485545691090848,-1,0,-1,1,1,0,-1,-1
1485545691091848,-3,-1,-2,-2,-2,-1,0,-1
1485545691091848,-1,0,0,-1,-1,0,0,1
1485545691105859,0,-3,-2,0,-1,0,0,-1
1485545691105859,0,-3,-1,0,-2,0,-2,2
1485545691106859,0,-1,1,0,0,0,-1,-1
1485545691106859,-3,-2,-4,1,0,1,-1,1
1485545691128374,0,-2,-1,0,1,-3,1,0
1485545691128374,2,1,-1,-3,0,0,-1,-1
1485545691129374,-1,2,-2,1,0,-1,0,-1
1485545691129374,0,-6,1,-4,-4,1,-2,-1
1485545691150890,-1,0,-1,1,-2,-1,1,-1
1485545691150890,-1,1,-3,0,-4,-1,-1,0
1485545691151890,2,-4,2,0,-3,1,-1,-1
1485545691151890,-2,2,1,-3,0,-2,-1,0
1485545691165900,-2,-2,-2,-2,-2,-1,1,-1
1485545691165900,0,-2,1,-1,-2,-1,0,-3
1485545691166901,0,-2,-3,-4,-1,-2,-1,1
1485545691166901,-1,1,0,1,-2,-1,-2,-2
1485545691188415,0,-2,1,-1,-1,0,-1,-2
1485545691188415,-4,1,-1,1,-1,-2,-1,1
1485545691189415,1,-2,-2,-1,0,0,-3,2
1485545691189415,-2,0,-1,-1,0,0,-1,0
1485545691210932,0,1,-2,0,-1,1,-1,1
1485545691210932,-1,0,3,-1,2,-2,0,-2
1485545691211933,-1,0,-2,-1,0,1,-1,-3
1485545691211933,0,0,-2,-1,-3,-2,0,-2
1485545691225942,0,2,0,-2,-1,-2,-2,-1
1485545691225942,-2,-2,-3,-2,1,1,-1,1
1485545691226975,-3,0,0,-3,0,-2,-2,0
1485545691226975,0,0,0,1,-1,-2,-1,-1
1485545691248504,2,-1,1,0,0,-1,-3,-1
1485545691248504,0,-2,-1,-1,-2,2,0,-3
1485545691248992,-2,1,1,1,1,-1,2,-1
1485545691248992,0,-2,0,-3,-2,-2,-1,-1
1485545691271020,-2,-3,-2,0,-4,-2,0,1
1485545691271020,0,-2,-1,-1,-3,-3,-2,-1
1485545691271532,-2,1,-1,0,1,-2,-1,-1
1485545691271532,2,-1,-2,-1,-2,-1,-2,-1
1485545691286028,1,-1,-3,-3,1,0,1,-2
1485545691286028,-2,-2,-3,1,1,-2,1,1
1485545691286519,-3,1,0,-1,-1,-2,0,-1
1485545691286519,1,1,-1,-1,-2,-1,0,1
1485545691308562,-1,-2,-3,-1,-1,-2,-2,-2
1485545691308562,-2,1,-1,-1,-3,-1,-1,-2
1485545691309035,0,-3,-1,-1,1,-1,2,0
1485545691309035,-4,-2,-2,-2,0,-1,-1,-1
1485545691331060,-2,-2,-2,0,0,1,1,0
1485545691331060,1,-2,-1,-2,-4,-1,-3,0
1485545691331551,-3,-1,-1,-2,0,0,0,-2
1485545691331551,1,-2,0,1,0,-1,-1,0
1485545691346070,-1,1,2,-2,-4,0,-2,-1
1485545691346070,0,1,-2,-1,-2,-3,0,-1
1485545691346571,0,0,0,-1,-4,-2,-1,-2
1485545691346571,-2,-3,-1,-2,0,-1,0,1
1485545691368587,3,0,-2,1,-1,-1,0,0
1485545691368587,-2,-1,-2,0,0,-2,-1,1
1485545691369089,1,0,0,-1,-2,0,-1,-2
1485545691369089,-2,0,1,0,-4,-1,-2,1
1485545691391092,-4,0,1,-1,-2,-1,0,-1
1485545691391092,0,-3,-1,0,1,0,0,-2
1485545691391592,-1,0,-1,1,-1,1,-2,-1
1485545691391592,-1,-2,1,-2,-1,0,-1,-2
1485545691405102,-1,-1,-1,-1,-4,-1,-1,0
1485545691405102,1,-1,0,-2,-1,-1,0,-2
1485545691413608,-3,-1,0,-1,0,-2,-1,-2
1485545691413608,-1,2,-1,-2,0,-3,-2,-1
1485545691428618,-3,-1,-4,1,-1,-1,-1,0
1485545691428618,-2,-3,1,0,0,-1,0,-1
1485545691429118,3,1,-3,-2,-2,-1,0,0
1485545691429118,1,-1,-1,0,1,-1,-1,0
1485545691451134,-2,0,2,0,-2,-2,0,-1
1485545691451134,-1,2,0,-1,-2,-1,0,-1
1485545691451634,-1,-1,1,-1,-1,-2,-1,0
1485545691451634,0,2,-2,-1,-1,0,-2,-1
1485545691465144,0,2,-1,-1,-4,-1,-1,0
1485545691465144,0,-1,2,2,0,-1,-1,-1
1485545691473650,-2,0,-2,1,0,-2,-1,2
1485545691473650,0,-2,1,-1,3,0,2,-2
1485545691488661,-3,1,4,-3,-1,0,0,-2
1485545691488661,-1,0,-3,-3,-2,-2,-2,0
1485545691489161,2,-3,0,-1,1,-3,-1,0
1485545691489161,1,-1,-1,1,-3,0,-1,-1
1485545691511211,-2,0,1,-1,3,0,1,0
1485545691511211,-2,1,3,-2,-4,-1,-3,-1
1485545691511712,-2,-2,2,-2,-3,0,-2,0
1485545691511712,1,-4,-2,0,-1,-1,-1,-2
1485545691525221,1,0,-1,-1,-1,-3,-4,-2
1485545691525221,0,-2,-1,0,-2,-1,-1,-1
1485545691533245,-3,-1,-1,-1,1,-1,0,0
1485545691533245,-1,3,0,2,-2,0,0,-1
1485545691548268,-1,-3,-3,-2,0,-2,-1,-1
1485545691548268,1,1,-4,-2,2,-2,-1,-2
1485545691549269,-3,-1,-2,-1,-2,0,0,-1
1485545691549269,0,3,1,0,-2,-3,-2,-3
1485545691570782,0,2,4,-2,-2,0,-3,1
1485545691570782,-3,-3,1,0,-3,1,-1,0
1485545691571784,2,-1,0,1,-2,-1,-1,-3
1485545691571784,0,0,-3,0,0,-1,-2,2
1485545691585291,2,-2,-2,0,-2,-1,-1,1
1485545691585291,-2,-1,0,-1,-2,-2,-1,-1
1485545691593297,-2,-3,2,-2,-3,1,-1,-2
1485545691593297,-1,-3,0,-1,-1,-2,-2,1
1485545691608308,-1,-1,-1,1,3,1,-1,0
1485545691608308,-2,0,2,-2,-1,-1,-1,1
1485545691609314,-1,0,-3,-1,0,0,-1,-1
1485545691609314,-1,-4,-2,-2,-2,-2,-2,-1
1485545691630824,-1,0,0,-2,-2,-2,-3,-3
1485545691630824,1,0,-3,1,1,-1,3,0
1485545691631825,-1,-3,-5,-2,-1,-1,-1,1
1485545691631825,-1,-2,1,-3,-2,-2,2,-1
1485545691654341,0,-1,0,0,-3,-1,1,0
1485545691654341,0,0,-4,-1,0,0,-3,0
1485545691654841,-3,0,-1,0,-1,-2,1,-1
1485545691654841,-2,1,-3,0,0,-2,-1,-1
1485545691668350,0,-3,0,0,-1,0,0,-1
1485545691668350,1,-2,-1,-2,-1,-1,-4,-2
1485545691669351,2,-3,0,-2,-3,-2,-1,-1
1485545691669351,-4,-2,-1,-1,-2,0,1,1
1485545691690857,0,2,-1,-3,1,-1,-1,-1
1485545691690857,-1,0,0,-1,-1,-1,0,-1
1485545691691858,-1,-1,-3,-1,0,-1,-2,0
1485545691691858,0,-1,1,-1,-3,0,0,-1
1485545691705379,-2,-2,-3,-2,-1,-1,0,-1
1485545691705379,-3,-2,-2,0,-1,-2,1,-1
1485545691713385,1,-1,1,0,-1,-3,-3,-1
1485545691713385,-2,-2,2,-1,-2,0,0,-2
1485545691728393,0,-1,-3,0,0,-1,-2,-2
1485545691728393,-2,0,3,-1,0,-1,1,-1
1485545691729394,-1,0,0,-1,-2,0,2,-2
1485545691729394,0,-2,-1,1,1,0,-1,0
1485545691750908,-4,0,2,-2,0,-1,-1,-2
1485545691750908,2,-4,0,0,0,-1,-2,1
1485545691751910,-2,-1,-3,0,2,1,-3,-1
1485545691751910,0,-2,0,0,-3,-1,-1,-1
1485545691774426,-2,1,0,-1,0,-4,1,-1
1485545691774426,-2,-1,1,1,1,-2,-1,-2
1485545691774926,-1,2,-1,-3,-2,-2,-1,0
1485545691774926,1,-1,-2,-1,-1,1,-2,-2
1485545691788435,2,0,0,-2,0,0,0,-1
1485545691788435,-1,-3,-4,-2,0,0,-2,-3
1485545691789436,1,0,1,1,0,1,0,-1
1485545691789436,-4,1,-1,0,-1,-1,-1,-1
1485545691810956,0,-3,-1,-1,-1,0,-1,-1
1485545691810956,0,2,-2,-1,2,-1,0,-1
1485545691811966,1,-1,0,0,-3,-2,-1,0
1485545691811966,-1,-2,-2,0,-2,-3,-1,0
1485545691833967,-4,-1,-2,-2,-1,0,-3,0
1485545691833967,-1,-1,-3,-2,-4,-2,0,-1
1485545691834968,-2,0,0,1,0,-1,-2,-2
1485545691834968,0,1,-1,0,0,-2,1,-1
1485545691848477,3,0,0,-1,-2,-1,0,2
1485545691848477,-2,1,1,-2,-1,0,-2,1
1485545691849486,0,-4,1,0,-3,-2,-3,-1
1485545691849486,-1,1,-2,-2,-1,-2,1,-1
1485545691870993,-2,-1,-2,1,-2,0,-1,0
1485545691870993,0,0,-5,-2,0,0,-1,-2
1485545691871999,-1,-2,0,0,1,-1,1,0
1485545691871999,-1,0,-1,0,0,0,0,0
1485545691894010,-2,0,-2,-1,-3,-1,-1,-1
1485545691894010,1,-1,0,0,-1,-2,-1,-3
1485545691895011,1,0,-3,-2,-3,-2,0,-3
1485545691895011,0,-2,1,0,-1,1,-1,-2
1485545691908522,-1,-3,0,0,-3,-3,-1,-1
1485545691908522,-4,-1,0,-1,0,-1,0,1
1485545691909010,-1,-3,-4,-2,-1,0,0,0
1485545691909010,-1,-1,3,-1,-3,1,-1,1
1485545691931026,0,0,-2,0,3,1,-2,-3
1485545691931026,0,0,-1,-3,-3,0,-1,2
1485545691931527,-2,0,-2,0,0,0,-1,0
1485545691931527,1,-2,0,-1,-1,-1,-2,-1
1485545691954043,-1,1,1,1,-1,-2,-1,-2
1485545691954043,-1,-2,1,-2,-4,-2,-3,0
1485545691955044,-3,-4,-3,-3,-1,0,-1,-1
1485545691955044,-1,-2,-4,0,-1,-1,-2,-3
1485545691968553,1,-1,-3,-1,-3,-2,0,2
1485545691968553,1,-1,-2,-1,-2,-1,2,-1
1485545691969053,-1,2,0,-1,-2,-1,-1,0
1485545691969053,1,1,0,-2,0,-1,0,-1
1485545691991069,-3,-1,-1,0,0,-1,-1,-1
1485545691991069,-2,-4,-3,1,-2,0,0,-1
1485545691991569,-2,0,1,1,-1,0,0,0
1485545691991569,0,0,-2,-3,3,-3,-1,-2
1485545692014085,-1,0,-3,-1,-1,-2,0,-1
1485545692014085,-1,-2,-1,-1,0,1,-2,-3
1485545692015085,-3,-1,1,-1,0,3,1,0
1485545692015085,-1,1,-2,0,1,0,-1,1
1485545692028595,1,-5,-1,0,0,-2,-2,-2
1485545692028595,2,-3,0,-1,1,0,1,-2
1485545692029096,0,-1,-4,0,-1,-1,0,-1
1485545692029096,-1,-2,-1,-2,-2,0,-1,-1
1485545692051111,-4,0,3,-2,2,1,1,-1
1485545692051111,1,3,1,-2,-1,1,-2,-2
1485545692051611,0,0,0,-2,-1,-3,-2,-2
1485545692051611,-2,-1,-3,0,1,-2,-2,-2
1485545692081632,-1,-3,-4,-1,-1,-1,1,1
1485545692081632,0,-1,0,2,-1,-2,-2,0
1485545692082633,-3,0,-2,-2,-3,-3,0,-2
1485545692082633,0,-1,0,0,-1,1,-2,1
1485545692088637,1,-1,-2,-1,-2,0,1,-2
1485545692088637,-2,-2,3,1,2,-2,-2,-2
1485545692089138,0,2,0,0,0,-1,-1,-1
1485545692089138,-1,-2,-1,-1,-1,-1,1,-1
1485545692111152,-1,-3,-2,1,0,-2,0,-3
1485545692111152,0,2,0,0,1,-1,0,0
1485545692111654,0,-1,-2,0,-1,-1,-2,-1
1485545692111654,-4,2,1,0,1,-2,0,-2
1485545692134170,1,0,-2,-5,-2,2,-1,0
1485545692134170,-1,1,1,0,-5,0,0,-1
1485545692134670,1,-2,-1,-2,-3,0,-1,-2
1485545692134670,-1,0,-2,-1,0,-2,0,0
1485545692148679,2,1,-3,0,0,-2,0,-1
1485545692148679,-2,-3,1,0,-2,-1,1,0
1485545692149192,1,-2,0,-2,0,-2,-2,0
1485545692149192,-1,-3,0,-1,-3,-1,-1,0
1485545692171194,-1,1,1,-1,-1,-1,-1,1
1485545692171194,-3,1,-1,-3,-3,-2,-2,-2
1485545692171711,-2,-2,1,0,0,-1,-1,0
1485545692171711,2,-3,0,-2,-2,-1,0,-2
1485545692194224,1,2,-1,-1,-3,-1,-1,-1
1485545692194224,0,3,-1,1,-1,-1,1,0
1485545692194722,0,1,2,0,-2,-1,0,1
1485545692194722,-2,0,-2,0,-2,-1,-2,0
1485545692208231,1,-1,4,-1,0,0,-3,1
1485545692208231,0,-2,0,-2,-4,-2,-2,0
1485545692209234,-1,0,0,-2,-2,1,0,-2
1485545692209234,1,-1,-1,-2,-4,-1,0,-1
1485545692230746,-2,0,-1,-1,-3,-1,0,-1
1485545692230746,2,-1,-1,1,0,0,-1,1
1485545692231747,-1,-1,1,-1,-1,-2,1,-1
1485545692231747,1,2,-1,0,1,1,0,-1
1485545692254263,-2,-4,-2,-3,-2,-1,-2,2
1485545692254263,0,0,-4,0,0,-3,1,0
1485545692254754,-1,0,1,-1,0,-2,-2,-2
1485545692254754,1,-2,1,-1,-2,-1,-2,-2
1485545692268273,0,0,0,0,-1,1,1,-1
1485545692268273,-2,-3,-1,1,-2,0,0,0
1485545692269274,-1,-1,0,-2,-1,1,-2,1
1485545692269274,-3,-1,0,-1,-1,1,0,1
1485545692290789,0,0,1,3,-2,-1,1,-2
1485545692290789,-1,-1,3,-3,1,-2,-2,-2
1485545692291802,-2,-1,-1,1,0,-1,0,-1
1485545692291802,-2,-2,0,-2,3,1,0,-3
1485545692314306,-2,-1,-4,-4,1,-2,0,-1
1485545692314306,0,0,0,1,-1,1,0,1
1485545692314807,0,0,-4,2,2,0,-1,0
1485545692314807,0,1,-3,-1,-4,-1,0,-1
1485545692328316,0,-1,3,-2,0,0,-1,-1
1485545692328316,-2,0,0,-2,-3,-1,0,-1
1485545692329316,-1,-5,2,-1,1,-2,-2,-1
1485545692329316,-2,0,2,1,0,-1,-3,-1
1485545692350831,2,0,-6,1,-3,-1,-2,-1
1485545692350831,-2,-1,-3,-1,-2,-2,-1,1
1485545692351832,0,0,0,1,-4,-1,0,-4
1485545692351832,0,-3,3,-1,1,-2,-2,-3
1485545692374365,-2,0,0,-1,-2,-2,-2,-1
1485545692374365,-1,-1,-1,0,-2,1,-1,-1
1485545692374849,1,-2,-2,-3,1,-2,0,-1
1485545692374849,0,-2,0,0,-1,-1,0,0
1485545692387858,-2,-2,0,2,0,1,0,0
1485545692387858,0,-3,-4,0,1,0,0,0
1485545692395854,-1,2,0,-2,-3,-2,0,-1
1485545692395854,-1,-2,-1,-1,-2,1,-2,-2
1485545692410865,-2,-2,-1,0,0,-1,-1,-1
1485545692410865,0,-1,-5,-1,0,-1,-1,-1
1485545692411865,-2,-4,1,1,-1,-1,1,1
1485545692411865,-2,0,0,-1,-2,-1,1,2
1485545692434381,0,-1,2,1,0,0,1,-1
1485545692434381,-1,0,-1,-3,-2,-1,-3,-2
1485545692434882,0,0,0,0,2,1,-2,-2
1485545692434882,-1,-1,-1,-2,-3,-2,-2,0
1485545692448391,-2,-5,0,0,-2,-1,1,-2
1485545692448391,1,-3,0,-1,-1,1,1,-2
1485545692455896,0,-1,-2,0,-1,-3,1,0
1485545692455896,-1,0,1,1,-1,-2,0,-1
1485545692470907,-1,0,-1,0,0,-2,-3,0
1485545692470907,0,-1,1,-3,-2,-1,-1,-2
1485545692471908,-4,1,1,1,-4,-1,-3,0
1485545692471908,0,-2,-4,-1,0,0,-1,-2
1485545692493423,-3,-1,-5,-3,-1,0,-1,0
1485545692493423,2,0,2,0,-2,1,0,-2
1485545692494424,1,0,-1,-2,-1,0,0,0
1485545692494424,-1,-3,0,-1,-3,-1,1,-1
1485545692507933,-1,1,3,0,1,-2,0,-2
1485545692507933,-1,-1,-2,0,-1,-2,0,0
1485545692515939,1,0,-1,-2,0,2,0,0
1485545692515939,-1,-1,-3,-1,-2,-1,-2,0
1485545692530950,0,-3,0,-1,-4,-1,-2,-1
1485545692530950,-3,-1,-1,0,0,0,1,1
1485545692531950,-2,-1,-1,-2,0,-1,1,-1
1485545692531950,1,-3,-1,1,0,-2,0,0
1485545692553465,0,0,-2,-3,1,-1,-2,-1
1485545692553465,0,1,0,0,-2,0,0,-1
1485545692554465,-2,-3,3,-1,-3,-1,-3,0
1485545692554465,1,1,-2,-2,0,2,-1,0
1485545692567975,0,-2,-1,0,-1,-2,0,0
1485545692567975,0,2,0,-1,-2,-2,-1,-1
1485545692575981,1,-2,-3,-3,-1,-1,-3,-2
1485545692575981,-1,1,-1,2,-3,-3,0,-2
1485545692590992,1,0,-2,-1,-1,0,-1,-2
1485545692590992,-2,-1,-1,-2,-1,0,-2,-1
1485545692591992,1,-1,0,2,-1,2,-1,-1
1485545692591992,0,1,2,1,0,0,0,-1
1485545692613507,0,0,0,0,2,-1,-1,-2
1485545692613507,-2,-3,-1,-1,-1,-1,-4,0
1485545692614008,-1,-2,-2,-2,0,1,0,0
1485545692614008,-1,2,0,-3,-1,-2,0,-1
1485545692628017,0,1,0,1,-3,-1,1,-1
1485545692628017,-1,1,-1,-3,-1,-2,0,-1
1485545692636023,1,-2,-1,0,-2,-2,-1,-2
1485545692636023,-1,-3,1,-2,-1,-1,-1,1
1485545692651046,-1,0,3,-4,-1,0,-2,-2
1485545692651046,-2,-2,-2,-1,-1,0,0,0
1485545692651551,-2,-2,-2,-1,-1,-2,-1,0
1485545692651551,-2,-1,-2,0,2,0,0,-1
1485545692673561,-2,-1,2,1,-2,-1,-3,0
1485545692673561,-3,-3,-2,1,-1,1,-2,-2
1485545692674062,0,2,-4,-1,-2,-1,-2,-1
1485545692674062,-1,0,3,-1,-3,1,-1,-2
1485545692696582,0,-1,-1,0,0,-1,2,-1
1485545692696582,1,0,-1,-1,-1,-2,-1,-2
1485545692697579,2,2,-1,-1,-4,-1,-1,-1
1485545692697579,2,0,-4,2,-1,0,-2,0
1485545692711090,0,-1,-1,-2,1,1,-1,-2
1485545692711090,-2,-1,-1,1,1,0,0,-1
1485545692711586,-2,0,2,-2,-1,-1,-1,0
1485545692711586,-2,-1,-1,-2,-1,-2,0,0
1485545692733591,0,-1,-3,-1,-3,-1,-1,-1
1485545692733591,0,-2,-3,-1,-2,0,-1,0
1485545692734107,-4,-2,-1,-1,2,1,2,1
1485545692734107,-1,-1,-2,0,-1,-1,-1,-1
1485545692756617,-1,-2,-2,0,-3,-2,0,2
1485545692756617,-1,-2,-1,-5,0,-2,0,-1
1485545692757619,0,-2,-2,-2,-1,-2,0,-1
1485545692757619,0,1,-5,-1,1,-1,-1,-2
1485545692771127,-3,-1,2,-1,-3,-2,-2,-1
1485545692771127,-4,0,0,-3,1,-1,0,-1
1485545692771619,-3,0,1,-1,-2,-1,0,0
1485545692771619,-1,-3,-1,1,-1,-2,0,-2
1485545692793680,2,-2,-4,0,-1,0,1,-1
1485545692793680,2,-1,-2,1,0,-1,0,1
1485545692794180,-2,1,-4,0,-1,0,-2,0
1485545692794180,-3,-3,2,-1,1,-1,-2,-1
1485545692816691,-3,-2,-5,-2,0,-1,-1,1
1485545692816691,-1,0,0,-2,-1,0,0,-3
1485545692817192,0,-3,-1,-1,1,1,0,-1
1485545692817192,-1,-1,-1,-3,-3,-1,-1,-1
1485545692830706,-1,2,1,0,1,-3,-2,-1
1485545692830706,1,-1,0,2,1,0,0,0
1485545692831707,-3,0,1,2,1,-1,0,-2
1485545692831707,-1,-1,-1,-1,0,-2,-4,-1
1485545692853222,2,1,0,-1,-2,-2,0,-1
1485545692853222,-3,-1,-2,-2,1,-1,-3,-2
1485545692854223,-2,-3,-2,-2,-1,-3,0,-1
1485545692854223,-2,-3,1,-2,-2,-2,0,-1
1485545692876733,1,-1,-2,-1,-3,0,1,-2
1485545692876733,-1,0,-1,-1,1,-3,-2,1
1485545692877223,1,2,-4,1,2,0,-1,-1
1485545692877223,-1,2,-1,-2,-1,0,0,0
1485545692890743,-1,0,4,-2,-2,0,-1,-3
1485545692890743,-1,-3,-3,-2,-1,0,-1,-3
1485545692891744,2,-2,-3,-2,-3,-1,-2,-1
1485545692891744,0,-1,-2,-2,0,-1,2,1
1485545692913259,-2,0,-4,0,4,-1,0,-1
1485545692913259,-1,1,-2,0,-2,0,-1,0
1485545692914261,-2,0,-1,0,-2,-2,-1,-1
1485545692914261,0,-2,3,-2,-1,-1,-2,-1
1485545692936776,-1,-2,0,-5,-1,-1,-1,-1
1485545692936776,-1,0,3,0,-2,-2,-3,1
1485545692937276,-3,1,-2,-2,-2,-1,1,-2
1485545692937276,1,-1,-2,-2,-3,-1,-1,0
1485545692950786,-3,0,-1,-1,1,1,-3,0
1485545692950786,1,-3,0,0,-3,0,0,-2
1485545692951800,0,0,0,1,1,1,-1,-1
1485545692951800,-1,-2,-3,-1,2,2,1,0
1485545692973305,-1,-1,0,0,-1,0,3,1
1485545692973305,0,-2,1,-3,-1,-1,-1,-2
1485545692974305,0,-1,0,-1,-3,-3,-2,-3
1485545692974305,-2,1,-1,-2,1,0,0,-1
1485545692996821,0,-1,-2,-1,0,0,-1,-1
1485545692996821,-1,-1,0,-1,-2,0,0,-1
1485545692997342,2,0,0,-3,-2,0,-1,-1
1485545692997342,-1,-3,-1,-2,1,-2,-1,0
1485545693010831,-3,-1,2,-1,-2,-2,-2,-1
1485545693010831,0,-1,0,2,-2,-1,1,0
1485545693011831,-2,1,-1,-2,-3,1,-2,0
1485545693011831,0,-2,-2,1,-1,-1,-3,-1
1485545693033347,1,-1,-1,-1,-1,0,-2,-1
1485545693033347,-1,0,1,-2,0,-2,-1,0
1485545693034347,0,-3,0,0,-1,1,-1,0
1485545693034347,-1,-1,0,0,0,-2,0,-1
1485545693056866,-3,0,1,-2,-2,0,-2,1
1485545693056866,0,0,1,0,-3,0,-1,-1
1485545693057361,0,-1,0,-2,-1,-1,-2,0
1485545693057361,0,0,-2,-1,-3,1,-1,-1
1485545693070870,-1,-1,0,1,0,0,0,-1
1485545693070870,1,1,-2,0,-1,-1,1,-1
1485545693071871,-1,-2,-1,-1,1,-2,-1,-1
1485545693071871,2,0,0,0,-2,1,-3,-1
1485545693093391,0,-1,-4,0,-3,0,0,-1
1485545693093391,-2,0,0,-1,3,-3,0,-1
1485545693094399,-1,0,-2,2,0,0,-2,1
1485545693094399,0,-1,2,-3,1,0,0,1
1485545693116439,-2,-1,-5,-2,-2,-1,-3,-1
1485545693116439,1,-2,-2,-1,-2,-1,1,0
1485545693117439,0,-1,3,-1,-1,-3,-1,-1
1485545693117439,-3,0,-2,0,0,0,-1,-1
1485545693130944,2,2,1,-1,1,-1,1,0
1485545693130944,-2,-3,-2,-3,-3,0,-1,0
1485545693131947,0,1,-2,-2,2,0,-1,0
1485545693131947,0,-3,0,-1,-2,-2,0,-1
1485545693153458,0,-2,-1,0,0,0,-1,-2
1485545693153458,-2,-2,-7,-1,0,0,-1,2
1485545693154459,-3,0,0,1,-2,-1,1,0
1485545693154459,1,1,1,-1,-1,-1,-1,-2
1485545693176478,2,-3,1,-1,-3,-1,-1,-1
1485545693176478,-1,1,-3,-1,-3,-1,0,-2
1485545693177477,-2,-2,-3,-1,-1,-1,-1,2
1485545693177477,0,-1,-2,1,-1,1,0,-1
1485545693190990,-3,-2,-1,0,0,0,-1,1
1485545693190990,0,-1,1,1,3,-1,-3,0
1485545693191988,-1,-2,-2,-1,-2,0,0,-3
1485545693191988,-5,0,-5,-2,-2,0,-2,-1
1485545693213501,1,-3,-2,-4,3,-3,-2,-1
1485545693213501,1,-1,-3,-1,-2,-1,0,-2
1485545693214012,0,-1,1,-2,3,-2,0,-2
1485545693214012,-3,-3,0,0,0,0,0,0
1485545693236522,-1,0,-1,-1,-3,0,0,1
1485545693236522,0,1,-1,-3,-2,-1,-2,0
1485545693237517,-2,-2,-1,0,-1,-4,-1,-1
1485545693237517,1,-1,1,0,-2,-1,0,-2
1485545693251028,-2,-1,-1,-1,-2,0,-1,-1
1485545693251028,1,-1,-1,1,-2,-1,-2,-2
1485545693251528,-2,0,-1,-1,-2,-1,-2,-1
1485545693251528,1,0,-2,0,3,0,-2,0
1485545693273542,-2,0,0,0,-1,-1,-1,-2
1485545693273542,0,-1,1,-3,-3,0,0,1
1485545693274033,-1,0,1,0,0,0,-1,0
1485545693274033,-1,-1,-1,-1,-5,-1,0,0
1485545693296559,-1,-2,0,1,0,-2,0,0
1485545693296559,3,-1,-1,-1,0,-4,-2,-1
1485545693297560,-3,2,0,0,-1,0,0,1
1485545693297560,1,1,-1,-1,0,-2,0,-3
1485545693310069,-1,0,-1,-1,-2,-1,1,1
1485545693310069,-1,0,0,0,-1,0,0,2
1485545693318575,-2,-2,-1,0,-2,-2,-1,-2
1485545693318575,0,-1,-3,-2,1,0,-3,0
1485545693333585,0,1,2,-1,-2,-2,-2,1
1485545693333585,-1,-1,-2,0,0,0,-3,-1
1485545693334090,0,-2,-1,-3,-1,1,-1,-2
1485545693334090,-1,1,1,-1,0,-2,-1,0
1485545693356601,0,3,-3,-2,-3,0,1,0
1485545693356601,-2,0,2,1,-4,-1,0,-1
1485545693357602,2,0,0,2,1,-1,-1,0
1485545693357602,1,-2,6,-1,-3,-1,-1,0
1485545693370111,-3,-2,-2,-2,0,-1,0,1
1485545693370111,-2,-1,-1,-2,-1,-1,-2,-1
1485545693378617,-3,-2,-1,-1,0,-2,-1,0
1485545693378617,-2,1,-2,-2,-3,-1,1,1
1485545693393633,1,-1,2,-1,0,-1,-2,-3
1485545693393633,0,1,-3,2,-2,1,-2,0
1485545693394133,1,0,-3,-2,-3,0,-1,-3
1485545693394133,-1,-2,-1,1,-2,1,2,-1
1485545693416649,-1,3,-3,0,-1,1,-1,-2
1485545693416649,-2,1,-2,0,1,-2,0,1
1485545693417650,0,0,1,0,-2,-2,-1,0
1485545693417650,0,-2,1,-1,-1,-3,-1,0
1485545693430158,2,-4,-2,-1,0,0,1,-1
1485545693430158,-1,-2,-1,0,1,-1,1,-2
1485545693438664,0,0,0,-1,-2,0,1,0
1485545693438664,-2,1,-2,-2,1,0,-1,-3
1485545693453686,-3,1,-1,-3,0,0,-4,0
1485545693453686,-1,0,2,-2,-2,-1,-1,-1
1485545693454171,-2,-3,3,-3,-1,1,2,0
1485545693454171,0,0,-4,0,0,-1,-2,-1
1485545693476686,-1,0,1,-2,-2,0,-1,0
1485545693476686,-2,-4,-2,-2,-1,-3,-1,-1
1485545693477688,0,-1,-2,1,3,-1,0,-2
1485545693477688,2,-1,1,0,-3,-2,-1,1
1485545693490198,0,0,0,-3,-3,-1,0,0
1485545693490198,-1,-2,3,-1,-1,0,-1,-1
1485545693498707,-2,-1,-3,-4,-1,-2,0,2
1485545693498707,-2,-2,-5,-1,1,0,-1,0
1485545693513215,1,-4,-1,1,2,-2,0,-3
1485545693513215,-1,0,-1,0,-1,-2,0,0
1485545693514215,0,3,-1,0,-3,-1,-1,0
1485545693514215,-3,2,-2,-1,0,-1,-2,-1
1485545693536729,-2,-1,1,1,-4,-1,1,-1
1485545693536729,-3,0,0,0,0,-3,0,-1
1485545693537229,-1,0,1,-2,0,-2,0,-3
1485545693537229,1,1,-2,-1,-3,-1,-1,-1
1485545693550238,-1,-1,1,0,-1,1,-1,1
1485545693550238,-2,-3,0,1,1,1,0,0
1485545693558243,1,-3,-3,-2,1,-1,0,-2
1485545693558243,-2,-1,-3,-3,-2,-1,-1,-1
1485545693573254,-2,1,-5,-2,-3,1,-1,-1
1485545693573254,-2,-2,1,-2,0,0,0,-3
1485545693574255,1,-1,0,0,-3,-2,-3,1
1485545693574255,-1,-2,1,-1,1,-1,-2,0
1485545693596770,1,-2,-2,-1,1,-2,-1,1
1485545693596770,0,-1,-3,-4,-2,-1,-1,-2
1485545693597271,-2,-4,-2,-1,-2,-1,-3,-3
1485545693597271,0,-2,1,2,0,-2,0,-2
1485545693610281,-1,1,-1,0,-2,-1,-1,-1
1485545693610281,1,0,-4,-2,-1,-1,-2,0
1485545693618291,-1,-2,-1,-3,-1,0,0,0
1485545693618291,0,-1,-1,0,-1,-2,0,-3
1485545693633335,-1,-3,-3,1,0,-1,-2,-1
1485545693633335,-2,-1,3,-3,-2,0,-3,-1
1485545693634336,-1,1,-4,0,0,1,-2,0
1485545693634336,-3,1,1,-1,-1,-1,1,1
1485545693656862,-1,1,2,-2,-1,-2,-1,-2
1485545693656862,0,-1,-4,-1,-2,-1,-2,0
1485545693657351,-2,-2,0,-2,-2,-4,-1,-3
1485545693657351,0,-2,1,-1,1,1,0,1
1485545693678866,1,-3,-3,-1,-2,0,-3,-2
1485545693678866,1,0,-1,-1,-1,-2,-1,0
1485545693679867,-1,0,1,1,-1,-2,-1,-1
1485545693679867,-2,0,-5,-1,-1,-1,-2,0
1485545693693376,0,0,1,0,-1,0,0,-1
1485545693693376,0,0,-2,0,1,-1,-1,-1
1485545693694378,2,-1,0,-1,-3,0,0,-1
1485545693694378,-2,0,1,-1,-1,0,-1,-1
1485545693716901,-1,-2,0,-1,-2,-3,-2,0
1485545693716901,-1,1,0,-1,-1,-1,1,-1
1485545693717394,-1,-2,2,1,-1,1,0,0
1485545693717394,-2,2,0,-1,-1,-1,-2,-1
1485545693738909,-2,2,-4,0,-4,-1,0,-1
1485545693738909,-2,0,1,-1,-1,-1,1,-1
1485545693739910,-1,0,-3,-2,-2,-2,0,-1
1485545693739910,1,-1,-4,-2,-3,-1,-1,0
1485545693753420,0,-1,4,-2,-1,-2,-1,1
1485545693753420,-1,-3,-3,2,1,1,-2,-2
1485545693754420,0,-1,2,1,-3,-2,-1,-1
1485545693754420,-1,1,1,0,-2,0,-1,-3
1485545693776436,1,-1,2,-1,0,-3,-1,-1
1485545693776436,0,1,-3,-1,-2,0,2,1
1485545693777436,-1,-1,-2,0,0,0,-1,2
1485545693777436,2,-1,-2,-2,0,-1,0,-1
1485545693798956,-3,-2,0,-1,0,-2,-1,0
1485545693798956,-1,-1,-1,-1,2,1,-1,-2
1485545693799957,0,2,-2,-3,0,-1,-1,0
1485545693799957,-1,-2,0,-4,-1,-2,-1,-1
1485545693813467,-1,3,1,0,-6,0,0,-2
1485545693813467,-1,0,1,0,-4,-2,-1,1
1485545693814468,-1,-2,-2,-1,-1,-2,0,-2
1485545693814468,-1,0,0,1,-2,-1,-3,0
1485545693836510,1,-1,0,1,3,1,1,-3
1485545693836510,-1,-4,0,0,-3,-1,-1,0
1485545693837506,-1,-3,-1,0,-1,0,-2,-1
1485545693837506,-1,-2,0,-1,1,-2,-1,-1
1485545693859022,0,1,-3,-1,-2,-3,-1,1
1485545693859022,-2,1,-3,0,-2,-2,-2,-3
1485545693860023,-1,0,1,-1,-1,1,-2,0
1485545693860023,0,1,-2,0,-2,0,0,-1
1485545693873532,-1,-3,-3,-2,0,-1,-2,-1
1485545693873532,0,-2,0,-3,2,-1,0,-1
1485545693874023,-2,-1,-3,-3,0,0,-1,-2
1485545693874023,-2,-2,1,1,-1,3,0,-1
1485545693896548,0,-1,-1,0,-1,-2,-2,0
1485545693896548,-2,-1,-1,0,-1,-1,-1,-2
1485545693897549,1,-4,2,-1,0,-1,-1,1
1485545693897549,1,-2,-1,0,1,-1,-1,-1
1485545693919064,0,-4,-3,0,2,-1,0,-1
1485545693919064,-3,-2,-1,1,1,-1,-1,1
1485545693920065,-3,-1,-2,-1,0,-1,-1,1
1485545693920065,-3,-2,-2,-1,-2,-2,-1,0
1485545693933574,-2,-3,2,-2,-1,0,1,-3
1485545693933574,0,0,-3,1,0,-1,0,0
1485545693934075,-2,-2,-2,1,1,0,1,-2
1485545693934075,0,1,-4,0,0,0,-2,-2
1485545693956590,0,0,-2,1,-2,0,-1,-2
1485545693956590,1,-2,-2,-1,-1,-1,-1,0
1485545693957591,-2,-1,0,0,-1,-3,-2,-3
1485545693957591,-3,-2,0,0,-1,-2,-2,1
1485545693979106,-3,-3,-2,0,-1,-1,1,2
1485545693979106,0,-2,0,-1,0,0,0,0
1485545693980107,1,2,-1,0,-3,1,0,-1
1485545693980107,0,-2,-2,-2,-1,0,0,0
1485545693993621,-2,3,-1,-1,1,-2,-2,-3
1485545693993621,0,-3,0,-2,-2,0,-3,-1
1485545693994118,-2,-1,0,-1,0,-1,-1,-1
1485545693994118,-2,-2,-1,1,1,-1,1,-2
1485545694016638,1,-4,-1,-2,-2,1,0,1
1485545694016638,-1,3,0,1,-1,0,0,-1
1485545694017638,-1,0,-2,1,-2,0,-1,-2
1485545694017638,0,-5,0,-2,-2,-1,0,1
1485545694039154,0,2,-2,-1,0,0,0,-1
1485545694039154,0,-1,2,-1,0,-1,-1,0
1485545694040156,-1,0,-1,-2,-2,1,-2,-1
1485545694040156,-1,0,3,0,0,-3,0,0
1485545694053659,-4,-3,3,0,-2,-1,0,-1
1485545694053659,-1,2,2,0,-1,-2,-4,-1
1485545694054160,-1,0,-3,-1,-3,-1,-1,1
1485545694054160,2,-2,-2,-2,-1,1,0,-1
1485545694076675,-1,0,-1,-1,-1,-1,0,0
1485545694076675,-1,1,-4,-3,-2,-2,1,0
1485545694077176,1,-1,-1,0,-1,-1,0,-1
1485545694077176,-1,2,0,1,-2,-1,-1,-1
1485545694099191,1,0,-4,-3,1,-2,0,1
1485545694099191,-4,-1,-2,-2,-1,-1,0,-1
1485545694100197,-1,-2,0,0,1,0,0,1
1485545694100197,-1,1,-3,0,-1,0,0,-1
1485545694113706,0,-1,-1,0,0,1,-1,0
1485545694113706,1,-1,-2,-1,-3,-1,1,-2
1485545694114201,-1,3,3,1,-1,0,-1,-1
1485545694114201,-4,-3,1,1,0,-1,-1,0
1485545694135717,1,0,0,1,-3,-2,-2,-2
1485545694135717,-1,-3,-4,-1,-2,1,-1,1
1485545694136717,0,-1,-1,-3,0,-1,0,-2
1485545694136717,0,1,2,0,-1,-1,0,0
1485545694159233,-1,0,1,0,-1,0,-2,-2
1485545694159233,1,-4,-1,-1,-2,0,-1,1
1485545694159724,-1,-2,-1,-1,-2,-3,0,1
1485545694159724,-2,1,-3,-2,-1,-1,0,-2
1485545694173243,1,-2,-1,-1,-2,0,0,-1
1485545694173243,-1,-3,0,-1,-1,-2,1,-3
1485545694174243,-2,1,-1,-1,0,-1,-2,1
1485545694174243,0,0,-3,-2,-1,-2,-1,-1
1485545694204270,0,0,-2,-4,-1,0,1,-2
1485545694204270,-1,1,3,-1,0,-1,-2,0
1485545694204770,1,0,1,-2,-2,-1,0,0
1485545694204770,-2,0,-2,-1,-1,-2,-2,0
1485545694219280,-2,-2,-1,0,1,0,-1,1
1485545694219280,-1,-1,-2,-1,1,0,-1,-1
1485545694219781,-1,-1,-3,0,1,-2,-2,-2
1485545694219781,-1,-1,1,2,-4,-1,-2,-1
1485545694233286,0,2,3,1,-3,1,1,-2
1485545694233286,0,-2,-2,0,-2,0,1,-1
1485545694234291,0,1,0,1,1,-1,0,-1
1485545694234291,1,-1,-3,-1,0,2,-1,0
1485545694255801,-1,0,0,-1,0,0,-1,-1
1485545694255801,-2,1,2,-2,-2,-2,-2,-1
1485545694256802,0,-2,-2,-1,-5,-2,-2,-1
1485545694256802,0,0,1,-1,1,-2,-1,2
1485545694279318,-1,-1,-3,-3,-1,-2,-2,-2
1485545694279318,-1,0,1,1,1,0,1,-3
1485545694279818,1,0,-3,0,-1,-1,0,1
1485545694279818,0,-1,-1,-1,-3,-1,0,0
1485545694292827,-1,-1,-1,-1,1,-1,-2,1
1485545694292827,1,-1,-2,-1,-4,-2,0,-1
1485545694300833,0,-1,-1,-1,0,0,1,-3
1485545694300833,-2,-1,-2,-1,0,-1,1,0
1485545694315843,-2,1,-1,0,-1,-3,0,0
1485545694315843,0,-3,0,-1,-1,-1,0,0
1485545694316844,-2,-1,1,2,-1,0,-1,-1
1485545694316844,-1,0,-4,-2,-1,-1,-1,-2
1485545694339365,0,-2,0,0,-2,0,-2,0
1485545694339365,0,1,-3,1,1,-1,-1,0
1485545694339865,1,0,2,-4,1,-2,-1,0
1485545694339865,0,-1,-3,-1,-2,1,-2,-2
1485545694352869,-1,0,-3,0,-4,0,0,0
1485545694352869,-3,0,0,0,-1,-2,0,-1
1485545694360875,-2,-4,-3,-1,-2,-2,-1,2
1485545694360875,0,0,1,-2,-3,-2,0,-2
1485545694375885,-2,1,-2,0,0,-2,0,1
1485545694375885,-3,2,0,-1,0,-1,-1,0
1485545694376887,-1,3,2,2,-1,0,-1,0
1485545694376887,-3,1,1,-1,-2,-2,-3,0
1485545694399392,1,-2,-3,-1,2,-1,0,-1
1485545694399392,1,1,2,-1,-3,1,0,0
1485545694399892,-2,-4,-1,-1,-1,3,0,0
1485545694399892,-1,0,-1,-2,-2,-2,-1,0
1485545694412901,0,-1,1,2,-3,-2,-1,-1
1485545694412901,1,0,0,0,0,-1,-2,0
1485545694420907,-1,-2,0,-3,0,-1,0,0
1485545694420907,0,-4,-1,0,0,0,0,-3
1485545694435917,-2,-2,-1,0,-3,1,0,1
1485545694435917,-1,-2,-5,-1,0,0,-1,0
1485545694436918,0,0,-1,-1,-3,-1,-3,-1
1485545694436918,1,2,-5,0,-1,-2,1,-3
1485545694458934,2,-1,2,-4,-2,-3,-1,-1
1485545694458934,0,0,0,-1,0,-1,1,-3
1485545694459935,-2,2,0,0,1,-1,0,-3
1485545694459935,-2,2,-1,0,-2,-1,-1,0
1485545694472944,0,0,-1,-3,1,-2,-3,1
1485545694472944,-2,-4,1,-1,-1,-3,1,-1
1485545694480949,3,0,-3,1,0,0,0,-2
1485545694480949,-2,-4,0,1,0,2,-2,-2
1485545694495961,-3,1,0,2,-1,-1,-1,-1
1485545694495961,-1,-1,0,-1,-3,1,1,0
1485545694496961,1,0,-1,-3,1,0,-1,-2
1485545694496961,0,1,1,-2,-2,-2,-1,-2
1485545694518977,0,0,0,-2,0,0,-1,-1
1485545694518977,-1,0,0,-1,-2,0,-1,0
1485545694519977,-1,-3,-2,-1,-2,-3,-2,-2
1485545694519977,-3,-1,1,-1,0,0,0,2
1485545694532986,0,-2,0,0,0,-3,0,-1
1485545694532986,0,-1,-1,-1,-2,-2,0,-1
1485545694540992,-1,-3,0,-1,-2,-3,1,-1
1485545694540992,0,-1,2,-2,-1,-2,-1,-2
1485545694556004,-2,0,0,1,-2,-1,0,-1
1485545694556004,-3,-1,-1,-2,0,-1,-3,0
1485545694556504,-3,1,-2,1,-2,0,0,-1
1485545694556504,0,-3,-2,-3,-1,1,-1,-1
1485545694579021,-1,0,-3,-1,-2,1,2,0
1485545694579021,0,-1,2,0,-1,-2,-1,-2
1485545694580021,-2,-1,0,-1,-2,-2,-1,-1
1485545694580021,-2,0,0,-1,-4,-1,1,-2
1485545694601535,-3,0,1,-1,-2,0,-1,-2
1485545694601535,1,-1,-4,-2,-1,0,-2,-1
1485545694602536,0,-4,-3,0,0,-1,0,1
1485545694602536,-2,-3,0,2,0,-3,-2,-1
1485545694616046,-1,-2,-4,-2,-2,0,-3,0
1485545694616046,-1,0,1,-2,-3,-4,-2,-1
1485545694616546,-1,0,2,-4,-3,-1,0,-1
1485545694616546,2,-1,-1,-1,0,-1,-1,0
1485545694639062,1,0,0,-3,-3,0,0,-1
1485545694639062,0,0,-3,2,1,-2,-3,0
1485545694640088,-2,-3,1,-2,0,0,-2,3
1485545694640088,1,0,0,-3,0,-1,0,0
1485545694661615,-2,-1,0,-2,0,-1,0,0
1485545694661615,-3,-3,2,-2,-2,0,-1,0
1485545694662616,-2,0,-2,-1,-2,-1,-1,-3
1485545694662616,0,-2,0,-2,0,1,-1,0
1485545694676123,-1,0,0,2,-1,-2,-2,0
1485545694676123,-1,-1,-3,-3,-2,-2,-1,-1
1485545694676615,-1,2,-2,0,-1,-1,2,0
1485545694676615,-1,0,1,0,0,-1,-1,1
1485545694699130,1,-3,-1,-2,0,-1,-1,-3
1485545694699130,-2,-1,-3,-1,-1,-1,0,-1
1485545694700132,1,-2,0,1,-1,1,-1,0
1485545694700132,-1,1,-4,0,-1,0,-1,0
1485545694721647,-1,-4,-1,-2,2,-4,0,0
1485545694721647,0,3,1,-2,0,0,-1,0
1485545694722647,-2,-2,-4,0,-1,-1,0,-1
1485545694722647,-2,-1,-3,0,0,-1,0,0
1485545694736157,-3,0,1,3,-2,-1,-1,-3
1485545694736157,1,-2,1,-1,2,-1,0,-1
1485545694736657,-3,-1,-1,-2,-3,0,-3,-1
1485545694736657,1,-1,2,2,-2,0,-3,-1
1485545694759173,0,-2,-1,-2,-2,0,-2,0
1485545694759173,0,0,-3,0,-1,-2,-3,-2
1485545694760173,-3,2,-2,-3,-1,-1,2,-2
1485545694760173,-4,-2,0,0,-1,0,0,-1
1485545694781689,-3,1,0,0,-2,0,-1,-1
1485545694781689,0,1,-2,-1,1,-1,0,0
1485545694782689,1,0,0,-2,-1,-2,0,-1
1485545694782689,-1,-1,-1,-1,-1,-2,-1,0
1485545694804204,0,-3,-4,-3,-2,-2,0,-1
1485545694804204,-1,-3,-1,-3,-2,-1,0,1
1485545694804705,-1,-1,-2,1,-3,-1,-1,0
1485545694804705,3,-1,-1,-3,1,-3,-4,-2
1485545694819215,0,1,-1,0,-1,0,-2,-2
1485545694819215,-1,0,-2,1,1,0,0,1
1485545694820215,-2,-1,-1,-1,-2,0,-2,-1
1485545694820215,-1,3,-1,0,-3,-2,0,0
1485545694841731,-2,-2,-1,1,-2,2,0,1
1485545694841731,-4,-6,0,-3,0,-1,-1,-1
1485545694842240,1,-1,-1,0,0,-1,-3,-1
1485545694842240,0,1,-4,0,1,1,0,-3
1485545694855741,1,0,-1,0,-2,-1,-1,-1
1485545694855741,-1,1,1,0,0,-1,0,1
1485545694856741,1,0,-1,-2,-2,0,-1,0
1485545694856741,-4,-1,-1,-1,-2,-1,-1,-2
1485545694879257,0,-1,2,-2,1,-1,3,-2
1485545694879257,-1,-4,-3,-1,-1,0,-1,-1
1485545694879758,-1,-1,1,-2,-1,-1,-1,0
1485545694879758,-2,0,-2,0,-1,1,0,0
1485545694901773,0,1,0,-3,1,-3,0,-1
1485545694901773,0,2,0,-1,-2,-1,1,0
1485545694902273,1,0,2,-1,0,0,-2,-2
1485545694902273,-2,-2,-2,0,0,1,-1,0
1485545694915783,-1,1,0,1,-1,-1,-1,-1
1485545694915783,0,-1,-4,-1,-2,-1,0,-3
1485545694916784,-1,-2,-1,0,-1,-2,-1,-1
1485545694916784,-1,-2,-1,-2,-2,0,0,0
1485545694939299,-1,0,-2,1,0,0,-1,0
1485545694939299,-1,-1,0,-1,-1,-2,-2,-1
1485545694939800,-2,-2,-1,-1,1,-1,1,-2
1485545694939800,1,-1,0,-2,-1,-3,-1,-1
1485545694961816,-1,0,-1,-2,-2,1,0,-1
1485545694961816,0,0,-3,-2,-3,0,-2,-2
1485545694962316,-1,-1,-1,1,-2,-3,-2,0
1485545694962316,0,0,2,0,-3,-1,0,-2
1485545694975825,0,1,-2,-1,1,-3,-3,-1
1485545694975825,-1,-1,1,-1,-1,-3,-1,-2
1485545694976826,1,0,-1,-1,-2,-2,0,-1
1485545694976826,1,-2,1,-2,-2,-2,-1,-2
1485545694999341,-3,-2,-3,-1,0,-1,1,0
1485545694999341,-2,0,1,1,-1,0,0,-1
1485545694999842,-2,0,-5,-2,0,0,-2,0
1485545694999842,1,-1,-1,0,0,-1,-1,-1
1485545695021857,0,-2,0,-2,0,0,-1,-2
1485545695021857,-2,1,-1,-3,0,-1,-1,0
1485545695022358,1,0,-1,-1,-1,-1,-1,-1
1485545695022358,-3,1,0,-1,-3,-1,-1,-2
1485545695035867,0,0,1,0,-1,3,-2,0
1485545695035867,-3,1,-5,0,-1,-1,1,0
1485545695036868,-2,-3,0,-1,1,-4,0,0
1485545695036868,1,-2,-2,0,0,0,-1,1
1485545695059403,-1,-2,-2,0,-1,-4,-2,-2
1485545695059403,0,2,-2,-1,0,0,-2,-2
1485545695059896,-1,-2,-3,3,-2,-2,-2,-2
1485545695059896,0,0,-1,-2,2,-1,0,1
1485545695081411,-2,-1,-4,-1,-1,-1,-1,0
1485545695081411,0,-1,0,-1,0,0,-1,0
1485545695082412,0,1,-1,-1,-1,-1,0,0
1485545695082412,-2,-3,0,-1,2,0,-1,-1
1485545695095919,-1,0,0,-2,-3,-2,-2,-2
1485545695095919,0,-3,-1,2,-4,0,-4,-1
1485545695096920,-1,0,-1,-2,-1,-1,0,-1
1485545695096920,-1,-3,-4,0,-2,-1,-3,-1
1485545695118936,1,-2,-4,-3,-1,-1,-1,0
1485545695118936,-2,0,-2,1,0,0,-2,-1
1485545695119937,0,0,1,0,1,1,-1,0
1485545695119937,-2,0,0,1,-1,-2,0,1
1485545695141451,1,1,0,-1,1,-1,0,1
1485545695141451,0,-1,0,-1,-2,-1,2,-2
1485545695142452,-3,-2,-1,0,0,-1,0,-1
1485545695142452,-2,1,2,-1,-3,1,-2,0
1485545695155961,-1,-4,1,0,-2,-1,0,1
1485545695155961,2,-1,-2,-2,0,-2,-2,-2
1485545695156962,-2,-1,-2,-1,0,0,0,-2
1485545695156962,0,-1,-1,0,-1,-2,0,-1
1485545695178978,2,-2,-1,-1,0,-2,0,-1
1485545695178978,-1,-2,-1,1,-1,-1,0,0
1485545695179979,-2,-1,-2,-2,0,1,0,0
1485545695179979,-2,-1,-2,1,0,0,1,-3
1485545695201499,-2,-2,0,0,-2,-2,0,-1
1485545695201499,-1,1,2,0,-2,-3,-1,1
1485545695202495,1,-3,-1,1,-1,-2,-3,1
1485545695202495,-3,0,0,-1,0,-1,-1,-1
1485545695215003,-3,-2,1,0,-1,-2,-2,-2
1485545695215003,2,0,1,-1,-4,1,0,0
1485545695223514,-2,-2,-1,-1,-1,-1,-1,0
1485545695223514,0,0,0,-2,-2,-2,-3,0
1485545695239025,0,0,-1,1,-3,-3,-1,0
1485545695239025,-2,-2,-1,-1,-2,0,-1,0
1485545695240026,1,1,-1,-1,-1,-2,0,-4
1485545695240026,0,-2,-3,-4,-2,-1,0,0
1485545695261536,-2,-1,-3,0,-2,1,-2,-3
1485545695261536,-3,0,-1,-1,-2,-1,-1,-1
1485545695262537,-1,1,-1,0,0,-2,-1,-2
1485545695262537,1,-1,1,-2,-2,0,1,0
1485545695275535,-1,-1,-3,-2,-1,-1,2,1
1485545695275535,-1,0,-1,-1,1,-1,-1,-1
1485545695283551,1,-1,0,-2,0,-1,-1,0
1485545695283551,2,-2,1,0,0,0,-1,-2
1485545695299067,1,-1,0,1,-1,0,-2,0
1485545695299067,0,-1,0,-1,-1,0,-1,-1
1485545695300068,-1,0,0,-1,-3,0,0,-1
1485545695300068,-1,0,-2,-1,1,-1,0,0
1485545695321578,1,4,0,-3,-2,-2,1,0
1485545695321578,-1,0,-2,1,0,-1,0,-1
1485545695322579,-1,-3,-3,-2,-1,-1,0,1
1485545695322579,-1,-3,-1,-2,-1,-2,-1,0
1485545695335087,1,-3,-2,-2,0,2,0,1
1485545695335087,0,2,-1,-1,0,-1,-1,0
1485545695343615,0,-2,-1,-2,-1,0,0,-2
1485545695343615,0,-1,-1,1,-2,0,-3,-1
1485545695359107,-1,0,1,0,-1,-1,0,-2
1485545695359107,-1,-3,1,-1,1,1,-3,0
1485545695360106,0,0,-1,-2,-4,-1,-1,1
1485545695360106,-1,-2,0,-2,0,-1,-1,-2
1485545695381621,-2,0,1,0,-1,0,0,-2
1485545695381621,-1,-1,-3,-1,-1,-3,1,0
1485545695382622,0,-1,1,0,1,0,-1,-3
1485545695382622,-4,-1,0,-2,-2,-1,1,-2
1485545695395130,-1,0,-2,-2,-3,-2,-3,-1
1485545695395130,-1,-1,-1,0,0,-1,-1,-1
1485545695403644,0,-2,-4,0,1,-4,0,1
1485545695403644,-1,0,-3,0,-1,1,-2,1
1485545695419152,-2,-3,-1,0,3,0,-1,-2
1485545695419152,0,1,-3,-2,0,0,0,-4
1485545695420148,-3,-2,1,-1,-1,1,-3,1
1485545695420148,1,0,-2,2,-2,1,-1,0
1485545695441668,-2,-1,-4,-2,-2,0,-2,-1
1485545695441668,-1,-3,-1,-3,-1,-2,-1,-2
1485545695442675,0,0,-2,0,-1,-2,0,0
1485545695442675,0,-2,-1,-2,0,-3,-1,-2
1485545695455172,-2,2,-3,0,-1,-1,1,-2
1485545695455172,-2,-5,0,-2,-1,-1,0,-1
1485545695463683,0,1,1,0,2,0,-2,-1
1485545695463683,-1,-1,-2,0,0,-2,0,0
1485545695479189,-1,-1,2,1,-1,-2,-3,-1
1485545695479189,0,1,1,0,0,-3,-2,-1
1485545695479690,0,-2,1,-2,-3,1,-1,0
1485545695479690,-2,-1,-2,-3,-2,-3,-2,0
1485545695501711,-2,1,-3,-2,0,-1,-2,-1
1485545695501711,2,0,-1,0,-3,-1,2,0
1485545695502210,-2,1,-3,-1,0,0,-1,-1
1485545695502210,0,-1,2,-1,0,-1,0,0
1485545695515220,1,1,1,-3,-2,-2,0,-1
1485545695515220,-5,-2,1,-3,-1,-1,-1,0
1485545695523721,-1,0,-2,-2,-1,-3,1,-2
1485545695523721,2,-2,1,1,-3,0,-1,-3
1485545695538236,-1,-3,0,-1,-1,1,0,0
1485545695538236,0,-2,-3,0,0,1,-2,1
1485545695545741,0,0,2,0,-3,0,-1,-2
1485545695545741,-3,4,-1,1,-2,-2,0,-1
1485545695561747,-2,-2,-1,-1,-1,-2,-3,0
1485545695561747,1,-1,1,-1,0,0,1,-1
1485545695562248,-2,-2,-1,-1,1,1,1,-2
1485545695562248,1,0,-2,-3,0,-1,0,-1
1485545695584263,-3,-2,1,-1,-1,-2,0,0
1485545695584263,-2,0,-3,-1,-1,-3,-1,1
1485545695584763,0,1,-3,1,-2,-1,0,1
1485545695584763,-3,-2,0,0,-1,0,0,-2
1485545695599274,1,1,1,-1,1,-1,-1,-1
1485545695599274,1,1,-1,0,0,2,-2,-1
1485545695599785,1,-1,2,-1,0,0,-3,0
1485545695599785,-1,-2,-2,0,-1,1,-2,-1
1485545695621789,0,2,2,-1,-2,0,1,-1
1485545695621789,-1,0,0,1,-3,0,-1,-1
1485545695622290,0,-1,1,1,0,-3,-1,0
1485545695622290,-2,0,-1,-1,-1,-1,-1,1
1485545695644305,0,-2,0,-1,-1,0,0,-1
1485545695644305,-1,-2,0,-1,1,-2,-1,0
1485545695644806,-2,0,0,-2,-2,-2,-2,0
1485545695644806,1,-1,-1,0,-1,-1,1,0
1485545695659316,-1,-2,0,-1,-1,0,-2,2
1485545695659316,-1,-2,-4,0,-1,-1,-1,-1
1485545695659816,1,-1,-2,1,0,1,-2,-1
1485545695659816,0,3,0,-1,-2,-1,-1,-1
1485545695681840,0,-1,1,-2,-1,0,-1,-2
1485545695681840,0,-3,2,-2,-3,-2,0,0
1485545695682332,-3,-3,1,-1,0,1,0,-2
1485545695682332,-1,-2,-1,1,-1,-3,-1,-1
1485545695704365,0,0,0,-1,0,-1,-1,-1
1485545695704365,-1,0,-1,0,-2,1,-1,-2
1485545695704848,-1,-1,-2,-3,-1,-1,-1,-1
1485545695704848,-1,1,1,-3,-3,-1,-1,-2
1485545695718359,0,1,3,0,-4,-2,-1,-2
1485545695718359,0,2,-2,0,-3,0,-1,-1
1485545695719370,1,1,-2,0,-2,0,0,0
1485545695719370,0,-2,0,-1,-2,1,-1,1
1485545695741880,-2,3,-4,0,-2,-1,-1,-1
1485545695741880,-2,-4,0,-1,-1,-2,-2,-1
1485545695742378,-1,0,-2,-1,0,0,-1,1
1485545695742378,-1,-2,-3,-3,2,0,-1,-2
1485545695764396,0,-2,1,-3,-2,-2,-1,-1
1485545695764396,-2,1,3,-1,0,-2,-1,1
1485545695764891,1,1,-2,0,0,0,1,-1
1485545695764891,-2,-1,-2,-2,2,-3,-2,0
1485545695778405,-3,-2,-2,-2,-3,-2,-1,0
1485545695778405,-2,0,0,-2,-2,0,0,-1
1485545695779401,-2,-2,-1,-1,-5,-1,-3,-2
1485545695779401,0,-3,-1,1,2,-2,1,0
1485545695801407,0,1,-3,-1,1,0,-1,-1
1485545695801407,-1,0,-2,0,1,-2,-1,0
1485545695802408,-4,2,0,0,-2,0,2,1
1485545695802408,-1,-2,-1,-1,-3,1,-3,-1
1485545695823923,0,-3,-2,2,3,1,-3,1
1485545695823923,-1,-4,1,-3,-1,2,1,-1
1485545695824924,-1,-2,-2,-3,0,0,-2,-1
1485545695824924,-3,-1,2,0,-2,1,0,0
1485545695838438,0,0,-2,-1,-2,0,-3,0
1485545695838438,-1,1,-2,0,-1,0,-1,-4
1485545695839434,1,-3,-2,-1,2,-3,-2,-2
1485545695839434,0,0,1,1,0,-1,1,-2
1485545695861449,0,-1,1,-1,-1,-1,0,0
1485545695861449,-1,0,-4,1,0,-1,-4,0
1485545695863451,-1,-3,1,0,-1,-3,1,-2
1485545695863451,0,0,-2,0,-1,-1,-1,0
1485545695883965,-2,-3,-2,-3,0,1,2,-1
1485545695883965,1,2,0,-4,-2,-1,-1,-1
1485545695885977,-2,-2,0,-1,-1,-1,0,2
1485545695885977,0,0,0,1,-1,0,-1,0
1485545695897978,-1,0,0,-1,-1,0,-2,-1
1485545695897978,-1,-1,2,0,-1,2,-2,-1
1485545695906982,-3,-1,0,1,-1,-1,-1,-1
1485545695906982,0,0,-2,-4,0,-2,-1,-2
1485545695921491,1,0,1,1,-3,-1,1,1
1485545695921491,-1,1,-3,0,0,0,-1,0
1485545695923502,1,-2,1,0,-1,1,-1,-2
1485545695923502,-1,0,0,-1,1,-3,0,-1
1485545695944007,0,-1,-4,0,-1,-1,-2,-1
1485545695944007,1,0,0,-1,-1,-2,0,-1
1485545695946009,-1,2,0,-1,-1,0,-1,1
1485545695946009,0,-1,0,0,1,0,0,0
1485545695958035,1,-1,0,0,-1,-3,0,0
1485545695958035,-3,-4,-1,-1,0,-1,-1,0
1485545695966540,-1,0,-3,-2,-3,1,-2,-2
1485545695966540,-1,-1,-2,0,-1,0,0,0
1485545695981546,-3,-1,0,-1,1,-3,0,1
1485545695981546,-1,0,-1,-1,-2,2,-1,-1
1485545695983044,0,0,1,-1,1,-1,0,-1
1485545695983044,-3,-1,0,-1,-4,1,-2,-2
1485545696004068,1,-1,-3,0,2,1,0,-1
1485545696004068,-2,0,0,-1,-2,-4,0,0
1485545696005569,-1,-3,-1,-2,-1,-2,-2,-1
1485545696005569,0,-1,0,-1,-2,-2,0,-1
1485545696017568,0,0,-4,-3,-3,2,0,-1
1485545696017568,-1,-5,1,-2,-1,1,1,1
1485545696026581,0,2,0,0,-1,-2,-2,0
1485545696026581,-1,0,-1,-1,-5,-2,-1,0
1485545696041585,-2,-1,-2,2,1,-2,0,-1
1485545696041585,-1,0,-1,-3,-1,-3,-1,-2
1485545696043077,-1,-1,4,-1,-2,-1,-1,0
1485545696043077,0,-1,-1,-1,-1,0,-1,0
1485545696064103,1,0,0,-1,-2,-1,0,-1
1485545696064103,0,2,-4,1,1,0,0,0
1485545696065593,-2,0,-3,0,-1,1,-2,0
1485545696065593,-2,-1,-1,-2,-1,-3,1,-2
1485545696077611,0,-1,-2,-2,0,0,-1,-1
1485545696077611,-2,1,2,0,2,0,0,0
1485545696086607,1,-1,-3,-3,-1,0,0,-1
1485545696086607,0,1,-2,1,0,-1,0,2
1485545696101619,-4,0,-2,-2,-4,-3,-2,1
1485545696101619,2,0,1,-1,0,-1,-3,-1
1485545696103120,-1,0,-3,-1,-2,-3,1,0
1485545696103120,-1,-3,-2,-1,-1,1,-2,-1
1485545696124135,-1,-2,4,0,0,-1,0,0
1485545696124135,-1,-2,-5,-1,-1,0,-2,-1
1485545696125636,-2,0,-1,1,0,-1,1,-2
1485545696125636,-1,-1,-2,-3,1,0,-4,-1
1485545696137644,-1,-3,3,-2,-2,0,-1,-1
1485545696137644,-2,0,1,0,-1,-3,0,-1
1485545696146651,-2,0,0,1,-1,-2,-2,-1
1485545696146651,1,-2,-4,-2,-4,-2,1,-1
1485545696161661,-1,-1,-3,1,-2,-1,-1,-1
1485545696161661,2,-3,0,2,-2,-1,-2,-2
1485545696163162,1,-2,1,-2,-2,-1,-1,-1
1485545696163162,-1,0,0,0,3,-2,-2,-1
1485545696184177,-3,-2,-5,-1,1,0,-1,0
1485545696184177,0,-2,1,0,-2,-1,0,-1
1485545696185678,-3,1,-2,-1,-1,-1,-3,-2
1485545696185678,0,-2,-1,-1,-2,-2,-2,-1
1485545696197686,1,1,-2,-2,0,0,1,0
1485545696197686,0,-1,-4,-1,0,-1,2,1
1485545696206692,-2,1,-1,0,-1,-1,1,-2
1485545696206692,-4,1,0,1,-2,-1,-2,-1
1485545696221703,-2,0,-2,1,0,-2,1,-2
1485545696221703,-2,0,-3,-1,-2,-2,-2,-2
1485545696223205,0,-2,-2,-2,-1,-1,0,0
1485545696223205,0,1,0,-1,0,0,-1,-1
1485545696244219,-1,-2,-3,-1,2,1,-2,-1
1485545696244219,-1,0,-1,0,0,0,-1,-1
1485545696245720,-1,-2,-1,-3,-2,-1,-3,-1
1485545696245720,-2,-3,-2,-2,-4,1,-1,1
1485545696257737,-1,-1,-2,-1,2,-1,-4,-3
1485545696257737,0,-2,-1,0,-2,-2,-1,0
1485545696266745,1,0,-1,-2,-1,0,-2,0
1485545696266745,-1,0,0,-2,0,-4,1,-2
1485545696281755,-1,0,1,-1,-3,-1,1,-2
1485545696281755,-3,-3,1,1,-2,0,0,-1
1485545696283256,1,1,2,2,-3,-1,0,0
1485545696283256,0,-4,-2,-3,-3,0,-1,-2
1485545696304262,-1,-1,0,-2,-1,-3,-1,-1
1485545696304262,-1,0,-1,-2,0,1,-4,-1
1485545696305763,-1,0,-3,-1,2,-1,-1,0
1485545696305763,0,0,-1,0,1,-2,-2,-2
1485545696317771,-1,0,1,-4,-4,0,1,-1
1485545696317771,0,-3,-3,1,-1,-2,-1,-1
1485545696326778,-2,0,-1,0,0,-2,1,-2
1485545696326778,-1,1,-1,3,1,1,-1,-1
1485545696341788,0,1,-1,-1,-3,1,-1,1
1485545696341788,-1,-2,-1,-3,1,2,1,-2
1485545696343289,0,-2,0,-1,-1,-1,-1,-2
1485545696343289,-1,-2,-2,-1,0,2,0,1
1485545696364304,-1,-2,-1,0,-3,-2,0,2
1485545696364304,1,0,-1,0,-3,-3,-3,-1
1485545696365805,-1,-1,0,1,0,-1,-2,-1
1485545696365805,-2,-2,-3,-1,1,-2,-1,-2
1485545696377813,-2,-3,3,0,1,-1,-2,-2
1485545696377813,2,-1,-2,-1,1,-1,1,2
1485545696386820,2,-3,-4,-2,0,-1,0,-1
1485545696386820,0,0,-1,-1,-2,-2,1,0
1485545696401830,0,0,-1,-1,-2,-1,0,-1
1485545696401830,0,0,0,-3,-1,0,-1,0
1485545696403331,0,1,3,1,-1,0,-2,-2
1485545696403331,0,0,0,-1,-1,1,-1,-2
1485545696423881,-2,-1,1,-1,0,0,0,-3
1485545696423881,-2,-1,-3,0,-3,0,1,0
1485545696425892,-2,-3,-2,0,-3,0,-1,-2
1485545696425892,0,-2,0,-2,-1,0,-3,1
1485545696437891,0,-1,-1,0,1,-1,0,-2
1485545696437891,-2,1,-2,-3,1,-2,1,0
1485545696446897,-2,-4,-1,0,0,-1,0,0
1485545696446897,-1,2,-1,-1,-3,0,1,0
1485545696461419,0,-5,-3,-2,1,1,-1,-1
1485545696461419,-2,-1,2,0,-3,-2,0,1
1485545696463420,0,3,-1,-1,-2,-2,1,-1
1485545696463420,-1,0,0,-1,1,0,-2,-2
1485545696483932,-1,-1,0,-2,-1,-1,-2,-1
1485545696483932,-1,0,3,0,-1,0,0,-2
1485545696485934,-2,-1,-4,-4,-1,1,0,2
1485545696485934,0,-2,1,-1,1,-1,-1,-1
1485545696506440,-2,-2,-4,-1,0,-2,1,-3
1485545696506440,-1,-1,-3,-2,-2,0,-1,-1
1485545696508441,-4,0,1,1,0,-2,-2,-3
1485545696508441,-1,1,0,-2,-2,-3,-1,-1
1485545696520950,0,0,1,3,-3,-1,-2,1
1485545696520950,0,0,-5,-1,-1,-1,-2,-2
1485545696527955,2,-3,-2,-2,-3,0,-1,0
1485545696527955,0,-1,0,-2,-3,-1,-1,-2
1485545696543966,0,0,-2,-1,-2,-2,0,-1
1485545696543966,-2,0,-2,1,0,-1,-3,0
1485545696545967,-2,-1,-4,-2,1,-1,0,-2
1485545696545967,-1,-1,0,0,-2,-2,-1,1
1485545696566482,0,0,-3,0,1,-3,-3,0
1485545696566482,1,0,1,-3,0,1,-2,-2
1485545696568483,-2,1,0,0,0,-1,-2,-1
1485545696568483,-1,-2,-3,-1,-1,-1,-2,-1
1485545696581492,-3,-1,1,-2,2,-1,-1,-1
1485545696581492,0,2,2,-1,-1,-2,0,-2
1485545696583493,-1,-3,2,2,-1,0,-1,-2
1485545696583493,1,-3,-2,-3,-2,0,0,-1
1485545696604008,1,-1,-2,0,-2,-1,-1,0
1485545696604008,1,2,2,-1,-4,-2,0,1
1485545696606009,-1,2,-3,-2,-2,-3,-1,-1
1485545696606009,-1,-3,-1,-1,-1,-1,-1,-1
1485545696626530,-1,3,1,-1,0,0,-1,-2
1485545696626530,-5,-2,-1,1,0,-1,0,-1
1485545696628525,-1,2,1,-1,-3,-4,-1,0
1485545696628525,-2,0,-2,0,0,0,0,1
1485545696641534,-1,0,-2,0,-1,0,1,-2
1485545696641534,-3,-4,0,0,1,-2,-1,-1
1485545696643035,-1,-2,1,-1,-1,1,0,-2
1485545696643035,1,0,0,0,-1,-2,-1,1
1485545696664060,-1,-3,-2,-1,0,0,0,0
1485545696664060,2,1,-1,1,0,2,-2,-1
1485545696665550,2,-2,-2,-1,-2,0,-1,0
1485545696665550,-2,-3,-1,-3,-2,0,0,-2
1485545696686582,2,-1,2,-1,-1,-1,-2,0
1485545696686582,-2,0,1,-1,-2,0,0,0
1485545696688078,-1,-1,-1,-1,0,-3,-2,1
1485545696688078,0,1,2,2,-1,0,1,-1
1485545696701085,1,-1,0,-1,-2,-1,-2,-3
1485545696701085,1,2,0,0,-1,-1,0,0
1485545696707592,-2,-1,-2,-3,-2,-2,-1,0
1485545696707592,2,-2,-3,0,-1,-3,0,0
1485545696724102,-1,-2,-1,-1,-1,-1,-1,0
1485545696724102,-1,-2,0,-3,-1,-2,-2,0
1485545696725604,-1,1,0,0,0,2,-2,-2
1485545696725604,-1,1,-3,0,-2,-1,-1,-2
1485545696746617,0,-1,-2,-2,-3,0,-1,-1
1485545696746617,-5,-3,-2,-2,1,-2,0,0
1485545696748119,1,0,-1,-2,1,-3,1,0
1485545696748119,-1,-3,-4,-1,-1,1,0,-2
1485545696761128,-1,-2,-3,0,-1,-2,0,0
1485545696761128,3,1,-2,-2,-2,0,1,-1
1485545696767632,-2,-1,2,1,-2,1,-2,0
1485545696767632,-2,0,1,-1,0,-2,-2,-1
1485545696784144,-3,0,0,-1,-2,-1,1,0
1485545696784144,2,2,-1,2,-1,-1,-4,-3
1485545696785645,0,-3,0,-2,-1,-2,0,-1
1485545696785645,-4,0,0,0,2,0,-2,-3
1485545696806649,1,0,-2,0,0,0,0,-2
1485545696806649,-3,-2,0,-1,-2,0,0,0
1485545696808150,0,-4,-2,-3,-1,-2,0,-1
1485545696808150,-2,-3,-1,0,0,0,-1,0
1485545696821160,0,-2,1,-2,-2,-1,-2,-3
1485545696821160,1,0,0,0,1,-2,0,-1
1485545696827665,-3,1,0,1,-2,1,0,-2
1485545696827665,-2,-1,-2,-2,2,-1,-1,-1
1485545696844176,0,1,-1,-4,-3,-1,-1,-1
1485545696844176,-2,-1,-2,-1,-1,-2,-2,-1
1485545696845677,0,-2,1,1,-3,0,-2,0
1485545696845677,0,1,-2,-1,-2,-1,0,0
1485545696866692,-1,0,1,-1,1,0,-1,0
1485545696866692,-2,-3,1,-3,-1,0,-1,-2
1485545696868193,0,-1,1,0,1,0,0,0
1485545696868193,-1,0,-3,-1,-1,1,-1,-1
1485545696881202,-2,-3,-4,-1,-2,0,-1,0
1485545696881202,0,-1,0,-1,1,-1,0,-3
1485545696887707,-1,0,-1,-3,-3,-1,-2,0
1485545696887707,0,1,2,-1,-4,-1,-2,0
1485545696904218,0,-1,2,0,-1,-1,0,0
1485545696904218,0,0,-2,0,-2,0,-1,-2
1485545696905720,-2,-3,-2,-1,-1,-1,-2,-3
1485545696905720,0,-3,0,0,-1,-2,0,1
1485545696926734,-2,-2,-3,0,-1,0,-1,-1
1485545696926734,-1,-1,0,0,0,0,-2,-2
1485545696928236,-1,-1,-4,-1,1,-3,-1,0
1485545696928236,0,1,1,0,-2,-2,1,0
1485545696940757,-3,0,-3,0,1,0,0,0
1485545696940757,0,-1,-3,0,-2,0,0,-1
1485545696947762,0,-1,1,-1,0,0,-1,-1
1485545696947762,1,-2,-4,0,1,-1,-1,-2
1485545696964274,-1,1,0,0,0,-2,-1,-2
1485545696964274,1,-4,1,-1,1,0,0,-1
1485545696965775,-1,2,-2,-1,0,1,-1,0
1485545696965775,0,-1,-3,-1,-3,-1,-4,-1
1485545696986789,1,-1,-1,1,-1,-2,-2,0
1485545696986789,-1,-2,-1,-1,-3,-1,-2,1
1485545696988292,-2,0,-2,-1,-3,0,-1,-2
1485545696988292,-2,-4,-1,-2,1,0,0,0
1485545697000800,-2,2,0,1,1,-2,-2,-2
1485545697000800,-2,0,-5,-3,0,-2,-1,1
1485545697007808,2,1,-1,0,-2,-1,1,-3
1485545697007808,-2,-1,-2,-2,0,0,-1,-1
1485545697024319,-3,0,-1,-3,0,-2,0,-3
1485545697024319,-2,0,0,2,-1,-2,-2,0
1485545697025820,1,1,1,-1,1,-1,-1,-1
1485545697025820,1,1,0,-1,-2,-1,0,2
1485545697046830,1,-1,-5,-1,-4,-1,-1,1
1485545697046830,-3,-2,1,-1,-1,-2,0,-1
1485545697048321,0,-2,-2,-1,-1,1,0,-2
1485545697048321,0,-3,1,0,0,1,-1,-2
1485545697060339,1,-4,2,-1,-1,0,0,-1
1485545697060339,-1,0,2,-1,0,3,-2,-1
1485545697069346,-3,-2,-2,-1,-1,-2,-1,1
1485545697069346,-2,-3,0,-2,1,-3,1,-1
1485545697084356,-1,1,-2,0,-2,-2,-1,-1
1485545697084356,-1,-1,-1,0,0,-1,0,-2
1485545697085857,-1,-3,1,0,-2,0,-1,-1
1485545697085857,0,0,1,-2,-1,-2,-2,-2
1485545697106877,-2,-2,-4,0,0,1,-1,0
1485545697106877,2,0,-1,0,-2,-1,1,1
1485545697108372,-4,-3,-1,0,-1,2,0,-1
1485545697108372,-1,2,-2,-1,-1,-1,-2,-2
1485545697120381,-1,-1,0,-3,-2,0,-1,0
1485545697120381,-1,0,-2,-4,-2,0,0,-1
1485545697129388,1,1,1,1,-1,-2,-1,-1
1485545697129388,-2,0,0,-2,-1,1,0,0
1485545697143897,0,2,1,-1,-1,0,-1,1
1485545697143897,-2,-2,-3,0,-2,-1,0,-1
1485545697145899,2,1,-2,-4,0,-5,0,0
1485545697145899,-3,0,0,0,-1,-1,0,-3
1485545697166414,-1,-3,-4,-1,0,-3,1,-3
1485545697166414,-1,-1,1,1,-1,-3,0,0
1485545697168415,0,-2,-3,1,-1,-1,1,-1
1485545697168415,-1,-1,1,-2,-1,1,-1,-1
1485545697180424,-1,0,2,-1,-1,-2,-3,-1
1485545697180424,-1,1,-2,-1,1,1,-2,0
1485545697189430,-1,0,-4,1,-2,0,1,-1
1485545697189430,1,-1,-3,1,-1,-2,-1,0
1485545697211446,0,0,2,0,-3,0,0,-1
1485545697211446,1,0,1,-1,-3,0,0,1
1485545697213446,-2,-3,0,-1,1,-1,0,-1
1485545697213446,0,1,-1,-1,0,-3,-2,-3
1485545697226471,-1,0,1,-1,-2,0,0,-1
1485545697226471,0,1,-3,-2,-3,-3,-3,-1
1485545697228458,-2,-1,1,-1,1,-1,-1,-1
1485545697228458,-3,-2,-3,-1,-1,-1,-2,1
1485545697240971,-2,-3,-3,0,0,-1,1,-1
1485545697240971,0,-1,0,-1,-4,-1,-1,-2
1485545697249472,0,1,-1,0,-5,-1,-3,-2
1485545697249472,-1,-3,-1,-1,-3,-1,-1,-1
1485545697263983,2,1,-3,1,2,0,0,-2
1485545697263983,-1,2,0,1,-2,1,0,0
1485545697265996,-2,0,-4,-2,2,1,-1,-1
1485545697265996,0,-3,0,-1,-3,0,-1,-1
1485545697286498,-2,-1,-2,-3,-1,-3,-2,1
1485545697286498,-1,0,1,0,0,0,1,-3
1485545697288500,-1,-2,-2,-1,-2,0,-2,-1
1485545697288500,-1,-1,0,2,-1,1,-1,-1
1485545697300513,1,-1,2,-1,0,-2,-2,2
1485545697300513,-3,-2,-4,-2,-1,-1,-1,-2
1485545697309504,-1,-2,-2,-1,-1,-1,0,0
1485545697309504,0,0,-1,-1,-2,1,-1,-1
1485545697324031,0,-3,2,-1,-3,-2,0,-2
1485545697324031,-3,-3,-2,-1,1,-2,0,1
1485545697325532,2,1,1,-2,0,-2,-2,-2
1485545697325532,-1,-3,0,-2,-2,-2,-1,-1
1485545697346545,-3,-1,-3,-2,0,0,-2,-2
1485545697346545,-1,-1,-5,-2,-1,-2,-2,-1
1485545697348049,-2,-3,-1,0,-1,-2,0,-1
1485545697348049,0,-1,-3,0,0,0,0,0
1485545697360050,0,-2,1,1,1,-1,1,-1
1485545697360050,0,-4,-1,-1,-3,-1,-1,-2
1485545697369557,1,-1,1,1,1,-1,0,-2
1485545697369557,-3,0,-2,-1,-1,-2,0,-1
1485545697384067,-2,0,-3,0,0,1,0,1
1485545697384067,1,0,2,2,0,-1,-1,-1
1485545697385572,-3,1,-1,0,0,-1,-1,2
1485545697385572,-3,0,0,-2,1,-1,-2,-3
1485545697406574,-1,-1,-7,-1,-1,0,0,-2
1485545697406574,0,-1,-1,0,0,-1,0,0
1485545697408075,0,-2,0,-3,-3,1,-1,-1
1485545697408075,-1,-2,1,1,-2,-1,-1,-1
1485545697429090,-3,1,2,-1,-2,0,-2,0
1485545697429090,-3,0,-1,-2,0,-2,-2,-2
1485545697430591,0,-1,0,2,-4,-2,-1,1
1485545697430591,-1,-1,1,-3,-2,-1,0,0
1485545697444100,2,0,1,-1,0,-2,-1,-1
1485545697444100,1,-4,0,-2,0,-2,-2,0
1485545697445601,-2,1,-1,-1,-1,-1,-1,0
1485545697445601,3,-1,-2,-1,-2,-1,-1,-3
1485545697466616,-2,-2,-2,0,-2,-2,0,0
1485545697466616,1,0,-1,0,-4,0,0,1
1485545697468117,0,1,1,1,-2,-1,-3,-1
1485545697468117,-2,2,-1,1,1,-1,-1,1
1485545697489132,-1,-4,1,1,1,0,-2,0
1485545697489132,-2,-1,-1,0,-3,1,1,-1
1485545697490633,-1,-2,-4,-1,-2,-3,-1,0
1485545697490633,-1,-3,1,1,-1,-2,-1,1
1485545697504142,-2,2,1,-3,-1,0,-2,0
1485545697504142,-2,0,-3,-3,0,-1,-2,-2
1485545697505643,-3,-3,-1,-2,-2,-2,0,-2
1485545697505643,3,-2,0,-1,1,1,0,-1
1485545697526658,2,-2,-2,0,-3,-1,-2,0
1485545697526658,-1,-3,-3,0,-1,0,0,0
1485545697528159,0,2,1,-2,0,2,-2,-2
1485545697528159,0,0,-4,0,1,1,0,-3
1485545697549200,-3,-2,0,-3,-3,-3,0,-1
1485545697549200,0,0,-1,-1,0,-2,0,0
1485545697550701,1,0,-2,-2,-2,-1,-1,0
1485545697550701,-2,0,-2,-1,-1,1,0,-2
1485545697564223,0,0,0,-1,-1,-2,0,-1
1485545697564223,-2,-1,2,-2,-2,-1,-1,-2
1485545697565721,0,1,2,-1,0,0,0,-1
1485545697565721,-2,1,-1,0,-2,0,-1,1
1485545697586737,-1,0,-5,0,-1,-2,-1,-1
1485545697586737,1,0,1,2,-3,-2,-1,2
1485545697588238,1,-1,0,-1,0,1,-1,1
1485545697588238,-1,0,0,-1,0,-2,-3,0
1485545697609256,-2,-1,-1,-1,-1,-1,0,-1
1485545697609256,2,-2,-1,-2,-1,1,-2,-1
1485545697610758,-1,0,-4,-1,1,-2,0,-1
1485545697610758,1,-3,-1,0,0,-2,-1,-1
1485545697631770,-3,-2,1,-2,-2,-1,-1,1
1485545697631770,-1,-2,-2,-3,1,-1,0,-1
1485545697633263,1,-2,1,1,-2,-1,0,-2
1485545697633263,4,-2,-1,-2,0,-2,1,-1
1485545697646778,-1,0,-3,-1,-1,0,-2,-1
1485545697646778,-5,-1,-1,-1,1,-1,-1,-2
1485545697648280,-2,0,3,-2,-2,2,-1,-1
1485545697648280,-3,-1,-2,-1,-3,-2,-3,1
1485545697669295,0,-1,-1,-1,0,0,0,-2
1485545697669295,-1,1,-1,-1,-1,-1,-1,-1
1485545697670795,-2,-1,-3,-2,-1,-3,-1,-2
1485545697670795,-2,0,-2,-1,-1,0,-2,0
1485545697683304,-1,-1,-2,1,1,-1,-1,0
1485545697683304,1,1,1,0,-1,0,-2,-2
1485545697690309,-1,-3,-1,-3,1,-1,-2,-1
1485545697690309,-1,0,0,0,-1,0,0,0
1485545697706825,-2,1,0,-3,-1,-1,0,-1
1485545697706825,1,-2,-3,0,-1,1,2,-1
1485545697708326,-3,-2,-1,1,1,-1,-1,-2
1485545697708326,-2,-1,-1,-1,-2,-2,-1,-1
1485545697729341,-1,-1,-2,-1,-2,0,-1,-1
1485545697729341,1,-2,-2,-2,-3,-2,1,-1
1485545697730837,-2,1,0,-1,-1,0,0,-1
1485545697730837,-2,-4,1,0,-1,-1,-1,-1
1485545697743395,-1,-1,-2,0,-1,0,-1,-2
1485545697743395,-1,1,1,-1,-1,-4,-2,0
1485545697750400,1,-2,-1,-1,-2,-1,0,0
1485545697750400,-2,-1,-4,-5,0,0,-2,-2
1485545697766411,0,-2,0,-1,2,-1,0,-3
1485545697766411,-3,2,1,0,2,0,-1,-1
1485545697768412,0,-1,1,2,-5,-3,0,-1
1485545697768412,-2,0,0,0,-3,-1,-1,1
1485545697788927,0,-4,-3,-2,-1,0,-2,-2
1485545697788927,0,1,-1,-1,-2,-1,0,1
1485545697790928,-1,0,-3,0,-1,-1,0,-1
1485545697790928,-2,-1,0,-4,-1,-1,0,0
1485545697803438,-2,0,-2,0,-3,1,0,-1
1485545697803438,-1,-3,-1,0,-2,0,0,-2
1485545697810450,-3,-2,-3,-1,-1,-2,-2,1
1485545697810450,1,-1,-3,-3,-2,1,-1,-3
1485545697826454,1,0,-4,-3,-1,-1,-1,0
1485545697826454,-2,-1,-1,0,1,0,-2,-2
1485545697828455,1,-1,1,-2,-2,1,0,0
1485545697828455,1,0,-1,0,-1,-1,-2,0
1485545697848969,-2,1,2,-1,0,-2,-1,0
1485545697848969,-1,-2,-1,0,-4,-3,-1,-2
1485545697850971,1,0,-1,0,1,-2,0,-1
1485545697850971,-1,-1,0,0,0,-2,1,-1
1485545697863480,1,-2,-4,-3,2,-1,-2,-1
1485545697863480,-3,-3,0,-2,-1,-1,-2,1
1485545697870490,0,-2,1,0,-1,-2,0,-1
1485545697870490,-3,0,-1,-2,-1,1,0,-2
1485545697886496,1,-1,1,-1,-1,-3,1,-2
1485545697886496,1,-1,-4,-1,0,0,-1,-1
1485545697888506,0,-3,-2,-1,-2,0,-1,-1
1485545697888506,0,-2,-2,-1,0,-2,-2,0
1485545697909002,-1,0,-3,-1,-2,-1,0,-1
1485545697909002,-2,-1,-1,0,1,1,-1,0
1485545697910503,0,0,-2,0,-2,0,0,-1
1485545697910503,1,1,0,1,-1,1,-3,1
1485545697923513,1,0,1,0,-5,0,0,0
1485545697923513,0,-1,-1,-2,-2,-3,-3,-1
1485545697930518,-1,2,-1,-1,1,2,-2,-2
1485545697930518,0,1,0,0,-1,-1,-1,1
1485545697946529,-4,-2,-2,-1,-2,-2,1,-1
1485545697946529,1,-1,0,0,0,-2,1,-1
1485545697948030,-1,-2,0,-2,-1,1,-2,-1
1485545697948030,1,-1,-1,-1,-3,-2,0,-1
1485545697969045,0,-1,-2,0,0,-2,0,-1
1485545697969045,0,-2,0,-3,-1,-1,-1,2
1485545697970546,-1,0,-4,-1,-1,-2,0,0
1485545697970546,0,1,1,1,-1,-1,0,-3
1485545697982554,-2,-2,0,1,0,-2,-3,0
1485545697982554,-2,-2,-1,-2,-1,-1,1,0
1485545697991568,-2,0,0,0,1,0,0,-1
1485545697991568,-2,-2,0,-1,0,0,0,-3
1485545698006571,1,-1,0,1,-2,0,0,0
1485545698006571,1,1,0,-2,-1,-2,-2,0
1485545698008072,-1,0,-1,-2,0,0,-3,-1
1485545698008072,-1,-3,0,0,0,-1,1,1
1485545698029087,1,-2,1,0,0,0,-1,-2
1485545698029087,-2,0,-1,-1,0,-1,0,-2
1485545698030588,-2,0,-1,0,-2,-2,-1,-2
1485545698030588,2,-2,0,-1,0,-1,-2,-2
1485545698042597,-2,-2,-1,-2,0,-1,-2,0
1485545698042597,-2,-1,-4,0,-1,-1,0,-1
1485545698051602,1,0,1,0,-2,-2,0,1
1485545698051602,-2,-4,-3,-1,2,0,-2,-1
1485545698066625,-1,-2,-2,-2,0,1,-2,-3
1485545698066625,1,1,2,0,-1,1,-3,-1
1485545698068127,-1,-1,-2,-1,0,-1,-3,0
1485545698068127,-3,-1,-1,-2,-2,-2,-2,1
1485545698089141,-1,-3,-2,0,-1,-2,-1,-1
1485545698089141,-2,-2,0,1,-2,0,0,0
1485545698090647,0,-3,-2,1,0,-1,1,-2
1485545698090647,-1,1,-1,1,-2,0,-1,-1
1485545698102648,0,3,-1,-1,-1,-2,1,0
1485545698102648,1,-2,-3,0,0,0,0,-2
1485545698111645,1,-2,0,-3,0,-2,0,0
1485545698111645,-2,-8,-2,-1,-2,-1,0,1
1485545698134243,-2,1,-1,0,-1,0,2,-1
1485545698134243,-2,0,-3,-2,-1,-1,-1,-1
1485545698135229,-2,0,-2,0,0,0,1,-1
1485545698135229,1,-2,2,0,-1,0,0,-1
1485545698149242,-1,1,-5,-1,-2,-1,-1,0
1485545698149242,-1,-3,2,-1,-1,0,0,1
1485545698150240,0,2,0,0,-4,-2,-3,-1
1485545698150240,-1,1,-2,-3,-2,-2,-1,-2
1485545698162252,-1,-2,0,-3,-2,-2,0,0
1485545698162252,-2,0,-1,-1,-2,-2,-1,-2
1485545698171287,-4,-1,-3,-2,-2,1,0,-1
1485545698171287,0,-1,-1,0,3,-1,0,-1
1485545698186285,1,-1,3,0,-2,-1,-4,-2
1485545698186285,0,0,-1,1,0,0,0,0
1485545698188296,-1,-3,1,-2,-2,0,-1,-2
1485545698188296,0,0,-2,-2,-4,-1,1,-1
1485545698209283,-1,-2,0,-3,1,0,-1,0
1485545698209283,-2,-2,0,0,0,-2,1,0
1485545698210298,-2,1,2,-2,0,0,-2,-3
1485545698210298,-3,2,-3,-1,1,-1,0,-2
1485545698222830,-2,-3,-1,0,-1,-1,-1,-1
1485545698222830,-1,1,2,-1,-1,-1,0,-1
1485545698231833,0,0,0,0,1,-2,-1,2
1485545698231833,-1,0,0,0,-1,1,-2,-1
1485545698246436,0,0,0,-1,2,-1,-2,-1
1485545698246436,0,-2,1,-1,-1,-1,-2,-2
1485545698248436,0,-2,-2,-1,-1,0,-2,-1
1485545698248436,-3,-1,1,1,1,-2,-1,0
1485545698269450,-2,0,-3,0,1,1,0,-2
1485545698269450,4,0,-1,0,-2,0,-1,-1
1485545698270451,0,-1,0,-1,0,-2,-1,0
1485545698270451,-1,-4,0,-3,-4,-2,-2,0
1485545698282463,0,0,1,0,-4,0,-1,-1
1485545698282463,-2,2,-2,-2,-2,-1,-2,0
1485545698291455,-1,-2,-3,0,-2,0,-2,1
1485545698291455,1,2,0,1,1,-1,0,1
1485545698306464,1,-1,-1,-1,0,-1,-2,0
1485545698306464,-2,-3,-1,0,-1,-1,0,-2
1485545698308466,-1,-4,1,-1,-3,0,0,-2
1485545698308466,-1,0,0,0,0,-1,-1,-1
1485545698329514,-2,-2,-4,-2,1,-2,2,2
1485545698329514,-3,-1,-6,-3,-1,-1,-2,0
1485545698330986,-1,0,0,0,-1,-1,1,-3
1485545698330986,-1,-4,-1,-4,-2,0,0,-1
1485545698342762,0,0,2,0,1,-2,0,1
1485545698342762,-3,1,-2,-1,-2,-1,-2,-1
1485545698351765,0,-2,-1,-2,0,-2,1,-1
1485545698351765,-1,0,-5,-2,-2,-1,-2,-2
1485545698366820,-2,-3,0,-1,-4,-2,-1,-4
1485545698366820,0,-2,-1,-1,1,0,-1,0
1485545698367816,-2,0,1,-1,0,-2,1,2
1485545698367816,-3,0,0,-1,-1,-1,0,-2
1485545698388838,1,-2,-1,0,-2,-1,-2,-2
1485545698388838,0,-1,-5,0,-2,-1,0,-3
1485545698390839,-1,-3,-1,-1,0,0,0,-2
1485545698390839,0,2,-1,-2,0,-1,-2,-2
1485545698411875,-1,-4,-2,-3,-3,1,1,0
1485545698411875,-2,0,-1,0,0,0,-1,0
1485545698412852,-2,-1,0,-1,1,0,-1,-1
1485545698412852,-3,-5,-1,3,-1,-1,0,1
1485545698426911,1,0,1,-1,1,0,-3,0
1485545698426911,-1,2,-2,-1,-4,-2,1,0
1485545698428411,0,1,-1,-1,0,-1,-2,1
1485545698428411,-1,-2,-1,0,0,-1,-1,-2
1485545698448634,-2,0,-3,-2,1,-2,-1,-1
1485545698448634,-1,-3,2,0,1,-1,0,0
1485545698450633,0,1,-3,0,-4,0,-1,-1
1485545698450633,1,-2,-1,-3,-2,-1,1,-1
1485545698471689,-4,-1,1,2,0,0,-2,-3
1485545698471689,-1,-1,1,1,-2,-2,-2,-1
1485545698472655,0,1,1,-4,0,-3,-1,0
1485545698472655,1,-1,1,0,0,-1,-2,-2
1485545698486663,-1,-1,-3,0,-2,-2,0,-1
1485545698486663,1,-2,-2,-1,-2,-1,-1,-3
1485545698487663,2,-2,0,-1,-1,-2,-1,-1
1485545698487663,-3,0,1,-1,0,-1,0,0
1485545698508738,-1,-2,2,0,1,0,-1,1
1485545698508738,1,0,-4,0,0,1,2,0
1485545698510737,0,-1,0,-1,-2,-1,0,-2
1485545698510737,-1,-1,-1,-2,-1,0,0,-2
1485545698531759,-1,-2,0,-4,0,0,-2,-1
1485545698531759,-3,-2,1,-1,-1,-2,0,-2
1485545698532762,-1,0,-1,-1,-3,-1,1,0
1485545698532762,-1,-3,-2,1,-2,-2,-1,0
1485545698553803,0,0,0,0,1,0,-2,0
1485545698553803,1,1,-2,-1,1,1,-3,-1
1485545698555803,0,0,0,0,-2,-2,-1,-2
1485545698555803,-1,-1,-1,1,-2,0,-1,-1
1485545698568853,0,-1,-5,-1,-1,-3,-1,-2
1485545698568853,-2,-1,3,-1,-2,1,-1,1
1485545698570819,-1,0,-4,0,-1,0,-1,0
1485545698570819,1,1,-3,-2,3,-1,0,0
1485545698590831,-2,0,-1,3,-1,-2,0,-1
1485545698590831,1,2,-3,-3,-2,1,-2,0
1485545698597808,-1,-2,-4,-2,-1,0,-2,-1
1485545698597808,-2,-2,0,-2,-1,0,-1,0
1485545698605814,2,2,-1,-1,-2,-1,-1,0
1485545698605814,0,-3,1,-2,2,-1,-2,-1
1485545698612818,-1,1,0,1,1,-1,-1,-2
1485545698612818,1,2,0,0,0,0,-1,-1
1485545698629331,-4,-2,-1,-2,-2,-1,0,-1
1485545698629331,-4,1,-3,0,-1,-3,-2,-3
1485545698630832,0,-1,2,-2,0,-2,-1,-1
1485545698630832,-1,-3,-3,0,-3,-2,-2,-1
1485545698651849,-2,-2,-1,0,-2,-2,-1,-1
1485545698651849,0,1,3,-1,-1,-2,-1,-2
1485545698652852,-2,0,-1,0,0,1,-2,-2
1485545698652852,-3,1,-1,1,-4,0,-2,-1
1485545698665859,0,-1,2,-2,-1,-1,1,-1
1485545698665859,3,-1,2,0,-1,1,2,0
1485545698672864,-1,1,-4,0,-2,1,1,-1
1485545698672864,1,-4,-1,-1,-2,-1,1,-1
1485545698688875,-1,3,0,1,-2,-1,-2,-1
1485545698688875,-1,0,-2,1,0,-1,-1,0
1485545698690877,0,-2,2,-2,-2,-3,-3,-2
1485545698690877,-1,1,-1,1,1,-2,-1,-1
1485545698711892,0,-1,-1,-1,1,0,2,0
1485545698711892,-1,-3,2,0,-1,0,-2,0
1485545698712893,-2,-1,-1,0,-2,-1,0,1
1485545698712893,0,0,-3,-1,0,0,-1,-3
1485545698725904,0,-3,0,-3,-1,-1,-1,-1
1485545698725904,0,0,-2,-3,-2,0,0,-3
1485545698732910,-2,-1,0,1,-3,-1,2,0
1485545698732910,-1,0,-1,0,-2,-1,-2,-1
1485545698748922,1,-1,-2,-2,-2,-1,-2,0
1485545698748922,-1,-3,-1,1,-1,-1,-2,-1
1485545698750923,0,-1,-4,-1,-1,-1,-1,-1
1485545698750923,-2,2,0,-3,0,-1,-1,-2
1485545698770938,-3,2,-2,0,1,0,-1,0
1485545698770938,-2,-2,0,-2,-1,0,0,0
1485545698772940,-2,-2,0,1,1,-2,-2,-2
1485545698772940,0,-1,1,-4,-2,-3,1,1
1485545698785949,-1,-3,-2,-1,-2,-2,0,1
1485545698785949,-1,1,-1,-2,0,-4,-3,-2
1485545698792953,-2,2,1,-2,-1,-1,0,-2
1485545698792953,0,-1,-3,1,1,-1,-1,-1
1485545698808964,1,-4,2,1,1,-1,-1,-2
1485545698808964,0,-1,-1,1,-3,-2,-1,0
1485545698810969,-1,0,0,-2,1,-1,-1,-2
1485545698810969,-2,-3,-3,0,0,0,0,-1
1485545698831483,-2,0,-2,-3,0,1,0,-1
1485545698831483,-3,1,-2,-3,0,-1,-1,-2
1485545698832484,0,1,-2,0,1,-2,-1,-1
1485545698832484,0,-4,-1,-2,-1,-1,-1,-2
1485545698845877,-2,0,-2,-1,0,0,-1,-2
1485545698845877,0,-1,-4,0,-2,0,0,0
1485545698852882,1,-2,2,1,0,0,-1,-1
1485545698852882,-1,2,2,1,2,0,0,-1
1485545698868905,-3,-1,1,-1,-1,-2,-2,-2
1485545698868905,-2,-3,-4,0,0,0,0,-1
1485545698870907,0,1,-6,-1,-1,-3,-1,0
1485545698870907,-2,-3,-2,-2,0,-1,1,-3
1485545698890921,1,-1,0,0,-4,0,0,-2
1485545698890921,-2,-1,-2,-1,-1,-1,0,-1
1485545698892920,-1,-5,-1,-2,0,1,-1,0
1485545698892920,1,2,-2,-1,-2,-2,-1,-2
1485545698904930,-2,-1,-2,-3,-3,0,-1,1
1485545698904930,-1,-1,1,-2,1,-2,-1,1
1485545698913925,-1,-2,-1,0,-1,2,0,0
1485545698913925,-1,-2,0,0,0,0,-3,-1
1485545698928969,-2,0,-2,0,1,-2,-1,-1
1485545698928969,0,0,2,-1,-2,-2,-1,-1
1485545698930452,1,0,0,-2,-4,0,-1,-1
1485545698930452,-2,0,1,-2,-2,-1,-2,1
1485545698951000,0,-1,-2,-1,-1,-1,-1,1
1485545698951000,-2,0,4,1,1,2,-1,-1
1485545698953002,-1,1,-1,1,0,-1,-2,1
1485545698953002,-1,-2,0,-1,-2,-1,1,-1
1485545698965006,1,-3,0,0,-1,-1,2,1
1485545698965006,2,-2,-2,-4,-2,-2,0,-1
1485545698974017,-1,-1,0,0,-1,0,-1,-1
1485545698974017,-3,1,0,0,-1,-1,-1,-1
1485545698989022,-1,-1,-5,1,3,-2,0,-3
1485545698989022,1,-1,-1,0,0,-1,-1,-1
1485545698990024,-1,0,-4,-2,-3,-2,-1,-1
1485545698990024,1,-3,-3,-1,0,1,-2,0
1485545699011038,0,2,1,0,0,0,-2,-2
1485545699011038,-1,-2,-1,-1,0,1,-1,1
1485545699013028,-2,0,1,0,-1,-3,-1,-3
1485545699013028,-2,0,1,-2,0,-1,1,-1
1485545699025064,0,-2,-1,1,1,0,-3,-1
1485545699025064,-1,1,-4,-1,-1,-1,0,-2
1485545699034057,2,1,2,0,2,0,0,0
1485545699034057,1,-5,0,-1,-3,-1,-3,1
1485545699049080,-1,0,1,-1,-1,-1,-3,-2
1485545699049080,-1,-2,0,2,-3,-1,1,-2
1485545699050586,-3,-3,1,-2,1,-2,0,-2
1485545699050586,1,-2,-1,0,-1,-1,-2,-1
1485545699071596,0,0,-1,-2,-3,-1,0,1
1485545699071596,-1,-1,0,0,-5,1,0,-1
1485545699073085,-4,1,-4,0,0,0,0,0
1485545699073085,0,2,-2,-3,1,-3,-1,0
1485545699085106,-1,-2,-2,-2,-1,-1,-1,1
1485545699085106,0,0,-3,-3,-1,-2,-2,-2
1485545699094101,-2,-4,-3,-1,0,0,-1,-2
1485545699094101,1,1,-3,1,-1,0,-1,-1
1485545699109124,0,-2,3,-1,-2,-1,-1,-1
1485545699109124,-1,0,0,-1,2,-1,-1,0
1485545699110612,1,1,0,-4,-3,-1,-2,-1
1485545699110612,0,-1,-1,-2,-1,-1,0,-4
1485545699131627,0,-1,-2,3,-5,0,-1,-3
1485545699131627,-1,-5,-2,-1,-2,-2,-1,-1
1485545699133140,-1,0,-1,-1,-1,-2,-1,1
1485545699133140,-1,-3,0,-1,2,0,-1,1
1485545699145145,-1,0,1,-3,0,-1,0,-2
1485545699145145,-2,-1,1,1,1,-2,-1,-2
1485545699154145,-2,-3,-2,-1,-2,-1,-1,-2
1485545699154145,0,2,-1,0,-1,1,-2,-1
1485545699169162,-1,1,0,-1,-2,-1,2,-1
1485545699169162,-1,-2,-2,-1,0,-1,-1,-1
1485545699170653,1,-2,1,-2,-1,-1,-1,-1
1485545699170653,-5,-2,-1,0,0,-3,-1,-2
1485545699191680,-2,0,2,0,0,0,0,-1
1485545699191680,2,-1,-2,0,-1,1,0,0
1485545699193220,0,0,0,-1,-3,-1,1,0
1485545699193220,0,-1,-5,-3,-2,-1,-1,0
1485545699205226,0,-5,-6,-3,0,-2,-2,0
1485545699205226,-2,-2,-2,-1,0,-1,-1,-2
1485545699214233,-1,-1,1,1,0,0,-1,-1
1485545699214233,-1,0,2,0,-3,0,-1,0
1485545699229243,-2,-2,-3,-1,1,-4,0,-2
1485545699229243,0,3,-1,-1,-1,-2,-1,-3
1485545699230744,-1,-2,1,-1,-1,0,0,0
1485545699230744,0,-1,-1,-1,-2,0,1,0
1485545699251758,-2,0,-3,0,1,2,0,-1
1485545699251758,-2,0,-3,0,-2,-2,-2,1
1485545699253260,-1,1,-3,-2,0,0,0,-1
1485545699253260,-4,-3,-1,0,0,-4,-2,0
1485545699265269,-4,-2,-3,-1,1,-1,-4,-2
1485545699265269,-1,-1,1,-3,0,0,1,0
1485545699274275,1,0,-4,1,-1,0,-1,-2
1485545699274275,0,-1,-1,-3,-1,0,-2,-1
1485545699288284,-4,-1,-1,0,0,-3,-4,-2
1485545699288284,-1,0,0,-1,2,0,-1,-1
1485545699295289,0,-2,0,-3,-3,-1,0,0
1485545699295289,0,-1,-1,0,0,-1,-1,-1
1485545699311807,0,-1,1,-2,-2,1,1,1
1485545699311807,-1,1,-2,-1,-3,0,0,-1
1485545699313307,2,1,-3,-1,0,0,-1,-1
1485545699313307,-2,-1,0,1,-1,2,-3,1
1485545699325316,2,-2,-4,0,2,-1,-1,0
1485545699325316,-1,-4,0,0,0,-2,-3,0
1485545699334323,-1,-2,0,1,-2,-3,-2,0
1485545699334323,-1,0,-3,-1,-3,0,1,-2
1485545699348332,-3,0,-1,1,-3,-1,-3,-2
1485545699348332,0,-2,0,-3,0,0,-1,0
1485545699355337,-1,-2,-1,0,0,-1,-1,-2
1485545699355337,0,4,-2,-1,1,-2,0,-1
1485545699371849,0,1,0,-2,1,-3,0,-1
1485545699371849,1,2,-2,-2,-1,-2,1,1
1485545699373345,-5,-2,1,1,0,-3,-3,-1
1485545699373345,4,-2,-1,-4,0,0,-1,0
1485545699393903,8,-1,-4,-1,1,1,-1,1
1485545699393903,4,0,-3,2,-4,0,0,-2
1485545699395899,-12,0,-2,-3,1,-2,1,-3
1485545699395899,-11,-4,1,2,0,0,1,-1
1485545699408410,-8,2,-2,2,0,0,0,0
1485545699408410,-5,-1,2,0,0,-4,-2,0
1485545699415409,3,-1,-2,-1,-1,0,0,-1
1485545699415409,0,-1,0,-2,-2,-2,-1,0
1485545699431416,3,0,0,0,-2,0,1,0
1485545699431416,0,0,-2,-1,-1,3,0,-2
1485545699433425,3,1,2,-1,-2,1,-1,-2
1485545699433425,1,0,-4,0,-2,-1,-4,-1
1485545699453931,-2,-1,1,-2,-1,-1,-1,-2
1485545699453931,-2,-1,0,0,1,-5,-3,2
1485545699455932,0,-2,-2,0,-2,0,-1,-1
1485545699455932,3,-2,0,0,0,-3,-1,-2
1485545699468440,1,-1,-3,-1,-2,1,1,1
1485545699468440,-3,1,0,-1,-1,0,0,-1
1485545699475446,3,1,-1,-1,-1,-3,-1,1
1485545699475446,1,-1,-2,-3,-1,-2,1,-1
1485545699491457,-3,-1,4,5,3,2,-2,-2
1485545699491457,2,-1,-4,-7,-9,3,2,2
1485545699493458,2,-3,3,2,0,-2,-1,-2
1485545699493458,-2,1,-6,0,0,-1,0,-1
1485545699513972,-4,2,3,1,0,-3,-2,-2
1485545699513972,-3,-3,-10,-2,0,-1,1,-1
1485545699515974,5,2,-12,1,0,1,-1,-1
1485545699515974,2,-12,5,-6,-5,-1,-1,1
1485545699528483,-5,-4,-4,-3,0,2,-1,-1
1485545699528483,-1,0,13,1,-1,-3,-1,-4
1485545699535488,0,1,-3,-2,-4,-1,0,1
1485545699535488,1,5,0,3,0,1,0,1
1485545699551499,-2,0,-4,-2,-4,-1,-1,-3
1485545699551499,1,5,5,-1,-1,0,-2,0
1485545699553501,-2,3,3,0,0,-1,1,1
1485545699553501,-2,0,-2,0,-1,-1,0,-2
1485545699574027,3,1,4,-1,-4,-1,1,1
1485545699574027,-3,0,-2,1,3,-1,0,-1
1485545699575539,-4,0,-10,-3,-3,0,-2,0
1485545699575539,-1,3,0,-1,1,-3,-2,-2
1485545699588035,-1,-2,-6,1,-3,-4,-2,-4
1485545699588035,-2,-4,-1,2,6,1,0,-2
1485545699597043,-3,0,2,1,0,-1,0,0
1485545699597043,0,-1,-9,-1,-1,-1,0,1
1485545699611551,0,-1,10,3,2,-1,0,1
1485545699611551,4,2,-8,1,-12,-1,-2,-2
1485545699613057,-1,-2,-14,-4,-6,-1,0,-2
1485545699613057,-1,4,8,-4,3,1,-1,-2
1485545699634067,-1,0,-21,-3,6,1,2,0
1485545699634067,1,-4,-4,5,-2,2,0,1
1485545699635558,1,1,10,-4,-5,-2,-2,-1
1485545699635558,-2,-6,-2,0,2,-7,-4,4
1485545699647576,-6,-5,1,-5,-3,0,3,2
1485545699647576,-4,1,2,-2,4,0,-1,-1
1485545699656573,3,0,2,0,3,-3,-1,-1
1485545699656573,-3,-1,-6,-1,1,-2,-6,-5
1485545699671593,1,-2,-1,0,-6,-4,-2,-1
1485545699671593,-5,-7,5,3,1,-3,-1,-1
1485545699673084,-5,-1,12,9,2,-1,0,-1
1485545699673084,0,0,-3,-14,-3,0,0,-1
1485545699694145,0,1,-3,10,-4,1,0,0
1485545699694145,2,0,2,-7,-5,-2,0,-1
1485545699695647,-2,-3,-5,0,0,-4,-3,1
1485545699695647,-1,-2,3,8,0,3,2,1
1485545699707655,-3,0,-2,-4,-2,-2,-3,-1
1485545699707655,1,-1,-1,-3,0,-1,0,-2
1485545699716666,-2,0,0,0,0,2,-1,-3
1485545699716666,3,2,-3,6,-3,4,4,0
1485545699731672,1,2,8,-11,3,-4,-2,1
1485545699731672,-2,-1,-4,5,-1,-1,-2,1
1485545699733173,0,-3,-1,-4,2,-4,0,-3
1485545699733173,-2,0,1,1,-2,-5,-2,-3
1485545699754187,0,-1,-4,-1,0,4,0,-2
1485545699754187,-1,1,1,0,-2,1,-1,0
1485545699755689,-2,-3,-2,-5,1,1,-1,0
1485545699755689,1,2,-3,4,2,-2,-1,-1
1485545699767697,3,5,1,4,-8,-2,-1,1
1485545699767697,-3,1,-1,-16,-1,-3,-3,-4
1485545699776704,1,1,-7,5,0,2,1,-1
1485545699776704,-2,0,1,0,-2,0,2,0
1485545699792216,1,3,-8,-2,-1,-3,-4,0
1485545699792216,-12,-23,-4,6,4,2,4,0
1485545699793711,0,8,-16,-9,-5,-2,1,-3
1485545699793711,1,-4,-10,-6,0,-1,-1,-1
1485545699814221,-3,-3,-7,4,1,1,1,-2
1485545699814221,5,2,2,1,-4,-3,-4,2
1485545699815723,0,0,11,-5,0,0,-2,0
1485545699815723,-3,-6,0,0,1,0,-2,-2
1485545699827730,1,-1,3,0,-5,-2,-1,1
1485545699827730,1,6,1,3,0,-1,-1,-2
1485545699836737,-1,-3,3,-1,-1,1,1,1
1485545699836737,1,6,-1,5,-4,0,-1,0
1485545699851748,2,0,8,-3,0,0,-2,1
1485545699851748,1,0,1,-3,-2,0,0,-2
1485545699853249,-3,-3,-2,5,1,-2,-2,-2
1485545699853249,-3,-2,4,-4,1,-3,0,-2
1485545699874263,1,2,5,-4,-1,0,-1,0
1485545699874263,2,2,-8,-3,0,-2,-2,-1
1485545699875764,-3,-4,-7,9,2,7,-1,1
1485545699875764,-1,3,23,-15,-3,-8,0,1
1485545699887773,-2,-7,-10,7,1,4,-1,-1
1485545699887773,-1,3,14,-16,-3,0,-4,0
1485545699896779,4,-1,-3,6,-8,-12,-3,0
1485545699896779,1,-4,-12,10,13,11,1,2
1485545699911290,1,1,39,4,-2,0,2,-2
1485545699911290,-3,0,-2,8,-2,-4,0,-3
1485545699917794,-6,-7,5,-3,-1,-2,-1,-1
1485545699917794,-3,-2,2,3,-6,-7,-2,0
1485545699941811,-1,-3,-12,-7,0,-4,-3,-2
1485545699941811,3,3,-10,0,2,2,2,1
1485545699943312,-4,-4,6,-3,1,0,7,0
1485545699943312,1,0,0,0,-2,-2,-3,-3
1485545699947815,0,1,-6,-5,0,1,-4,0
1485545699947815,-5,-1,-2,-3,2,1,17,4
1485545699956822,3,2,-7,-6,-5,-4,-16,-2
1485545699956822,-1,5,-5,-3,-3,1,3,-1
1485545699971837,-2,-6,-4,0,-3,-1,1,0
1485545699971837,-7,0,-12,3,-4,-4,-4,-5
1485545699973333,7,-1,0,-4,5,4,37,11
1485545699973333,-3,0,3,4,-2,3,-35,-7
1485545699994348,10,3,-5,-9,-5,-7,-14,-4
1485545699994348,-1,1,-4,0,0,-1,-1,0
1485545699995849,-6,-5,-1,4,1,2,-6,-2
1485545699995849,1,-1,-1,-1,-7,-3,15,0
1485545700016363,0,-1,-7,-11,4,-1,8,2
1485545700016363,-1,-7,-1,12,4,2,-13,-1
1485545700018365,-2,-4,-25,-10,-6,-1,-1,-4
1485545700018365,-1,-3,3,-32,1,-1,5,1
1485545700030874,-3,4,-7,18,-1,0,-3,0
1485545700030874,4,-14,1,26,2,1,7,4
1485545700039380,-2,4,4,-41,-5,-3,-8,-3
1485545700039380,0,-5,-4,6,-4,-2,0,-2
1485545700054391,-7,0,2,-1,1,3,1,-1
1485545700054391,8,7,6,-7,-1,1,0,-2
1485545700055892,1,3,-2,20,-1,-1,-3,-1
1485545700055892,-7,-3,-18,-8,-3,-2,-1,-2
1485545700067900,2,5,8,-9,-1,-3,-5,-2
1485545700067900,-2,0,-10,14,5,-1,-3,-1
1485545700076907,-3,-3,32,-11,4,2,-3,-3
1485545700076907,-1,-13,2,13,-3,0,3,4
1485545700090916,-4,-1,-7,-14,-8,1,2,-1
1485545700090916,-3,4,-6,-35,-2,-4,-3,-3
1485545700097921,3,3,15,13,5,-1,-5,-1
1485545700097921,0,2,-48,23,1,-2,3,1
1485545700113932,-3,1,23,-1,0,-5,-2,-1
1485545700113932,1,-5,15,1,-4,-2,-3,1
1485545700115934,2,-1,-36,0,4,2,1,0
1485545700115934,1,4,14,-4,-7,0,-2,-2
1485545700127943,1,-2,4,-13,-1,-3,4,-1
1485545700127943,-1,2,-21,-7,0,0,-1,-1
1485545700136949,-2,0,26,6,0,2,1,0
1485545700136949,-1,0,1,12,-1,-5,-3,-1
1485545700150458,0,-2,11,19,1,1,-1,-1
1485545700150458,1,2,-6,-8,2,2,1,1
1485545700159465,1,0,-9,0,1,0,-1,-1
1485545700159465,-2,4,12,-5,-4,4,-2,-1
1485545700174475,1,1,-12,0,-2,-1,4,-2
1485545700174475,2,1,9,-8,-3,-3,-1,-1
1485545700175976,1,-1,28,34,-4,-1,-1,2
1485545700175976,-6,-10,12,-46,-5,-2,0,-2
1485545700196490,-1,2,-7,31,5,12,2,0
1485545700196490,3,-1,1,-12,-2,-25,-2,-2
1485545700198492,-1,2,10,1,-3,3,-5,-4
1485545700198492,2,1,20,-39,-1,5,4,1
1485545700211001,-4,-2,-11,5,1,0,-1,1
1485545700211001,0,7,26,4,-2,10,1,2
1485545700217505,1,-2,-33,-1,-15,-7,-3,-2
1485545700217505,3,-7,9,5,4,0,0,3
1485545700234017,5,2,-5,22,1,1,1,0
1485545700234017,-3,0,-7,0,-1,3,2,-1
1485545700235518,-1,-1,-22,-16,-1,-5,-2,-2
1485545700235518,2,2,2,22,-1,4,-2,-2
1485545700256570,-2,-5,9,-22,-8,-7,-1,-3
1485545700256570,4,0,-5,23,1,-1,-2,2
1485545700258071,0,-5,-7,-21,-1,4,-1,1
1485545700258071,-3,-4,-6,20,1,-6,-2,-1
1485545700271080,-2,-7,-8,-6,1,-4,1,0
1485545700271080,1,3,3,17,0,0,-1,-2
1485545700277584,-5,-9,10,16,0,1,0,-1
1485545700277584,3,9,-8,1,0,-6,-2,-2
1485545700294096,2,-14,6,19,-1,-5,-1,0
1485545700294096,1,-1,-9,47,7,0,-3,0
1485545700295597,2,0,9,-42,2,0,0,1
1485545700295597,-2,-5,-8,-11,9,0,1,0
1485545700316612,-4,3,-11,-35,-11,-6,-4,-5
1485545700316612,-10,2,2,5,-2,0,-4,-1
1485545700318113,-3,1,-12,-1,5,-2,0,-3
1485545700318113,-9,2,14,-7,2,0,2,2
1485545700330121,4,1,17,3,1,-1,-1,-1
1485545700330121,-5,-2,-13,-20,-7,2,0,1
1485545700339128,4,-2,12,3,-4,-3,-2,2
1485545700339128,0,2,-16,8,0,0,2,1
1485545700354138,-9,-2,-4,9,2,3,1,-2
1485545700354138,-3,-4,0,-18,-5,-1,-2,-3
1485545700355639,-1,-2,0,1,0,0,-2,-2
1485545700355639,1,-1,-5,14,-3,0,-2,-4
1485545700376654,-1,0,-15,-17,0,-3,-1,1
1485545700376654,5,-1,11,-1,-1,0,0,0
1485545700378155,-4,4,8,5,-2,-1,-1,-2
1485545700378155,2,-8,1,8,1,-1,0,0
1485545700391163,1,2,0,-28,0,1,0,0
1485545700391163,0,-3,-5,2,-1,1,1,-2
1485545700397669,3,3,4,39,1,-4,0,-1
1485545700397669,1,2,5,16,-1,-1,0,0
1485545700414181,-5,0,31,-10,-1,-1,1,2
1485545700414181,-2,-5,-8,22,0,-3,-2,1
1485545700415682,-6,-7,-49,-65,-11,-3,-4,-6
1485545700415682,6,9,16,20,-5,-9,-4,-1
1485545700436696,-1,1,-12,8,8,0,1,0
1485545700436696,0,1,-2,-10,-3,8,1,1
1485545700438198,-1,-3,9,33,2,1,-1,0
1485545700438198,-1,-3,-16,-14,-2,-2,-1,-1
1485545700450707,-1,4,10,-10,-5,-1,-5,-2
1485545700450707,-1,-2,-9,-11,-1,-5,-3,-2
1485545700457712,-2,3,-3,-3,0,-1,0,-1
1485545700457712,-5,-4,11,-11,-8,1,-4,-3
1485545700474223,2,2,-4,9,0,-4,-2,-2
1485545700474223,-3,-2,-1,-16,0,-1,1,-1
1485545700475724,1,-4,15,4,5,2,2,1
1485545700475724,-3,-6,-21,8,4,0,-2,-1
1485545700496739,0,-1,7,-11,-2,-2,0,-1
1485545700496739,0,3,1,-6,-6,-2,-2,0
1485545700498240,-2,1,-7,-11,-4,-5,-4,-2
1485545700498240,10,1,-20,-20,0,1,2,-1
1485545700510749,2,-5,-18,5,-1,1,-1,3
1485545700510749,-2,0,-2,-6,-3,-2,0,-3
1485545700517754,2,0,6,6,-2,0,2,2
1485545700517754,3,2,7,7,-2,4,3,1
1485545700534265,-5,-5,-7,3,-3,-1,-1,0
1485545700534265,-1,-6,-6,-15,1,-2,-1,-2
1485545700535766,-4,1,5,11,4,0,0,0
1485545700535766,-3,0,-1,-10,1,0,0,0
1485545700556781,1,8,-8,11,-4,-3,-5,-4
1485545700556781,-2,-1,9,6,4,1,1,1
1485545700558282,1,2,3,-2,0,-2,-3,-5
1485545700558282,-1,3,-1,-10,3,4,-1,-1
1485545700570291,3,-3,8,-1,-9,-1,-1,-4
1485545700570291,-6,-2,-5,-11,-6,1,-4,2
1485545700579297,-13,-5,-16,4,-3,0,-1,-1
1485545700579297,6,10,2,-3,-3,-2,-1,-1
1485545700594315,5,-17,5,-6,4,3,6,0
1485545700594315,1,-34,10,2,0,-1,-1,-1
1485545700595809,2,2,-3,-1,-2,-2,1,3
1485545700595809,1,-4,2,2,0,-1,-5,-7
1485545700616824,0,-4,-13,5,2,1,1,-3
1485545700616824,-2,10,0,4,-2,-3,-2,0
1485545700618325,-1,-3,0,-3,-1,-1,1,-2
1485545700618325,-5,-4,-7,4,0,-1,0,2
1485545700630333,-16,1,5,-3,-2,-1,-2,2
1485545700630333,-6,4,-4,-9,1,1,0,-3
1485545700639339,11,7,-13,16,0,1,0,0
1485545700639339,-12,-9,37,-21,-13,-4,-4,-5
1485545700654358,-4,3,-11,4,2,-1,-2,-2
1485545700654358,3,5,-5,1,-1,-3,-1,0
1485545700655851,-4,0,7,-7,-6,2,1,-1
1485545700655851,-3,-5,-8,4,1,-1,1,2
1485545700676365,0,1,5,1,0,-1,-1,1
1485545700676365,5,1,6,-3,-1,-6,-2,-3
1485545700678366,-3,-2,0,1,3,-1,0,0
1485545700678366,1,-1,-7,4,2,-2,-1,-2
1485545700690375,1,-1,0,-3,1,-1,-2,-1
1485545700690375,0,2,-6,-7,-1,0,-1,0
1485545700699381,-6,-4,2,6,0,-3,-1,1
1485545700699381,-2,-1,-5,-3,-2,2,0,0
1485545700714396,-4,0,-6,2,3,0,-1,0
1485545700714396,-1,-2,3,-1,-5,-1,-1,-1
1485545700715892,1,-6,3,-6,0,0,-2,0
1485545700715892,1,0,-1,1,-3,-2,0,0
1485545700736407,3,-3,-5,4,0,-1,-1,0
1485545700736407,1,-1,2,-1,-1,2,-1,-1
1485545700738408,2,4,5,-4,-7,0,-2,0
1485545700738408,0,3,-7,7,4,2,1,-1
1485545700750416,-4,0,-4,0,-1,0,-2,0
1485545700750416,1,1,5,-1,0,-1,-1,-1
1485545700759423,-2,-3,4,3,0,-2,-1,-3
1485545700759423,-4,-2,-12,-1,-3,-2,1,-2
1485545700773932,0,1,-1,0,1,-1,-1,-1
1485545700773932,-2,-4,-10,-2,0,-4,-2,-3
1485545700775934,-1,2,2,1,4,1,1,-1
1485545700775934,2,2,1,1,0,-3,0,0
1485545700796449,0,-3,-2,2,-1,-2,0,-1
1485545700796449,-1,2,-1,0,-4,0,-1,0
1485545700798451,1,-2,0,-5,-2,0,-1,1
1485545700798451,2,-2,1,0,0,1,0,0
1485545700810459,2,2,-4,-3,-5,2,1,1
1485545700810459,2,-1,1,0,-1,0,0,-1
1485545700819465,0,1,-4,-2,-3,0,-1,-2
1485545700819465,2,-2,5,2,1,1,0,0
1485545700833975,-1,0,-6,0,-2,-1,-2,0
1485545700833975,0,2,3,2,2,0,0,1
1485545700835477,0,1,1,-1,-1,-1,-2,-1
1485545700835477,-2,-2,-3,-3,-1,-3,-1,0
1485545700856491,-2,-2,-1,0,-1,-2,-1,-4
1485545700856491,-3,0,4,0,1,-1,-1,2
1485545700858511,-2,-4,0,-1,1,-1,-1,-1
1485545700858511,-1,-2,-1,-1,2,-2,0,1
1485545700870001,0,1,-3,-4,2,-2,-2,0
1485545700870001,-3,-2,-1,1,-2,1,-2,-2
1485545700879007,-1,0,-3,-1,-2,-1,-1,-1
1485545700879007,-3,1,2,0,-3,0,0,1
1485545700894027,-2,0,1,1,2,-1,2,1
1485545700894027,3,1,0,0,0,-1,0,-2
1485545700895529,1,0,0,-2,0,1,-2,1
1485545700895529,1,-1,-2,-2,-2,1,-3,0
1485545700916544,0,-4,1,0,-2,-1,-2,-1
1485545700916544,1,2,3,0,-1,0,2,-2
1485545700918035,1,-3,-3,-3,-2,-2,-1,-3
1485545700918035,-3,0,2,2,-2,2,-2,0
1485545700939059,0,-1,-3,-1,-1,1,-2,-1
1485545700939059,0,-2,1,-1,-3,-2,1,0
1485545700940550,1,-1,0,2,1,-2,1,-1
1485545700940550,-2,-1,-3,-1,-1,-2,0,-1
1485545700955571,0,-1,-3,-4,-3,1,-1,-1
1485545700955571,-5,0,-1,-1,-1,-1,-1,-1
1485545700962066,-2,2,-1,-1,-1,0,0,0
1485545700962066,1,-2,-5,-1,1,-1,0,0
1485545700969071,0,2,2,0,-4,0,0,-1
1485545700969071,0,0,-3,-6,-5,-1,-2,0
1485545700978078,2,-2,1,-3,-3,-1,0,-1
1485545700978078,-2,-2,-6,0,1,-1,-1,0
1485545700983082,4,3,6,-2,0,-1,-1,0
1485545700983082,3,2,-10,-9,-6,0,1,0
1485545700991588,3,4,2,6,-2,-6,-3,0
1485545700991588,3,2,6,2,-2,5,-4,-1
1485545701005097,-1,0,-1,-7,-7,-4,1,-1
1485545701005097,0,1,2,3,1,6,0,-2
1485545701014104,1,-5,-5,-3,-4,1,-2,-2
1485545701014104,0,2,-3,-2,0,-12,-1,-5
1485545701029113,0,-4,-2,-2,-1,1,-1,-5
1485545701029113,0,-1,-2,3,-1,-5,-2,-2
1485545701030615,-7,-4,-12,-1,0,-2,-1,-2
1485545701030615,-4,-2,-14,1,4,-3,0,0
1485545701042623,-6,-8,-11,1,1,-6,-3,-5
1485545701042623,-4,-4,-13,1,3,-2,-1,-2
1485545701051658,-1,-5,-1,0,3,-3,-2,-2
1485545701051658,-6,-6,-14,-2,2,-1,-1,-4
1485545701065169,-8,-4,-26,1,5,-4,-2,-1
1485545701065169,-3,-4,-23,0,6,-6,-3,-2
1485545701074176,-7,-5,-21,-3,4,-2,-2,-2
1485545701074176,-2,-3,-11,-1,0,-5,0,-4
1485545701089197,-3,-4,-15,-1,2,-2,-1,0
1485545701089197,-6,-7,-17,0,4,-3,-5,-3
1485545701090687,-5,-3,-23,-2,3,-4,-3,-1
1485545701090687,-4,-6,-14,-1,1,-3,-3,-1
1485545701102705,-2,-5,-10,0,2,-1,-1,0
1485545701102705,-3,-5,-15,-1,3,-3,1,-3
1485545701111712,-6,-2,-14,-2,6,-5,-1,-4
1485545701111712,-7,-8,-13,-3,4,-2,-2,-2
1485545701125220,-5,-7,-16,2,5,-3,-2,-2
1485545701125220,-5,-5,-7,1,5,-6,-2,1
1485545701134227,-1,-3,-8,0,1,2,2,2
1485545701134227,-3,0,-1,-2,-1,-3,0,-2
1485545701149237,4,5,6,0,-2,2,0,0
1485545701149237,1,1,7,0,-6,1,-1,-2
1485545701150738,-2,-4,-10,0,1,-4,-2,-1
1485545701150738,-1,-2,-4,3,-1,1,-1,1
1485545701162747,2,1,2,-3,-2,0,-1,-1
1485545701162747,1,-3,0,-1,-2,0,-1,1
1485545701171758,-2,-1,3,-3,-1,-1,-1,-1
1485545701171758,-2,-1,-5,-4,-2,-1,0,-1
1485545701185263,-1,-3,-4,-3,0,-2,-1,1
1485545701185263,-1,3,2,0,1,-2,-1,-2
1485545701194269,0,0,4,-1,-3,-2,-2,0
1485545701194269,-1,-3,-2,2,-2,-4,-3,-3
1485545701208269,-3,-2,-6,0,-2,-2,0,-1
1485545701208269,-3,-2,0,-1,-1,-1,-1,-1
1485545701215274,2,1,1,1,-5,1,-2,0
1485545701215274,0,1,1,-1,-1,0,1,-1
1485545701222778,1,-2,0,1,-2,0,0,1
1485545701222778,0,0,-5,0,-3,-2,-2,1
1485545701231785,-1,-2,0,-2,-2,0,0,0
1485545701231785,1,-4,0,-2,-3,0,0,-1
1485545701245294,0,-2,0,-2,-1,-1,0,-2
1485545701245294,-2,-1,0,-2,1,0,2,-1
1485545701254301,-1,-2,-3,-1,-1,-4,-2,-2
1485545701254301,-1,1,6,-1,-1,-1,-1,0
1485545701268311,-1,3,12,-2,-3,-1,0,0
1485545701268311,4,5,12,0,-8,5,2,0
1485545701283322,3,2,12,-1,-5,4,0,-1
1485545701283322,2,2,4,-2,-4,-1,0,1
1485545701284322,1,1,8,-1,-2,0,1,0
1485545701284322,3,2,13,1,-5,0,0,0
1485545701291828,4,5,13,1,-4,3,0,1
1485545701291828,1,3,5,-1,-1,0,-1,-2
1485545701305337,-1,1,0,-2,-1,-1,-1,-2
1485545701305337,0,1,-4,-2,1,-4,-2,-2
1485545701314391,1,-1,1,-2,-3,2,-1,1
1485545701314391,-3,-1,-1,-1,-3,2,-1,-1
1485545701328402,-1,1,0,0,-1,1,-2,-1
1485545701328402,0,-1,3,1,3,-1,0,0
1485545701335407,-2,-2,1,1,1,-5,-1,-1
1485545701335407,-1,-3,-2,-1,1,0,-1,-2
1485545701352920,-1,-2,0,-1,-2,-2,-4,-2
1485545701352920,0,0,-3,1,-2,0,-1,-1
1485545701354921,0,2,2,-2,-1,-1,-2,-2
1485545701354921,2,-1,1,-1,-2,0,0,1
1485545701365441,0,0,0,0,-4,1,0,-1
1485545701365441,1,-1,-2,-1,-3,2,1,-1
1485545701374448,-5,-2,-2,1,1,-1,-2,-1
1485545701374448,-4,0,-3,-3,1,-3,0,-2
1485545701388458,-2,2,-2,1,0,-1,-3,-1
1485545701388458,-3,0,-3,-3,0,-2,-1,0
1485545701395461,-2,-1,0,0,0,0,-1,-2
1485545701395461,2,4,0,-3,0,-1,-3,-2
1485545701402965,2,-4,-1,1,-1,1,-1,-1
1485545701402965,-3,-3,1,-1,1,-1,-1,-2
1485545701419486,0,0,0,-1,-2,-3,1,0
1485545701419486,1,-3,1,-1,-2,0,1,0
1485545701425483,0,1,2,-1,-3,1,1,-1
1485545701425483,0,-3,0,-2,1,1,-1,-1
1485545701434490,0,-2,-5,-1,0,-3,-2,-2
1485545701434490,-4,-2,-4,1,1,-1,-1,-1
1485545701448500,0,2,-5,-3,1,-1,0,-3
1485545701448500,-1,-1,1,-1,-1,0,-2,0
1485545701455503,-3,-1,-2,0,2,2,0,-1
1485545701455503,1,-1,-1,2,2,-2,1,0
1485545701462507,-1,-3,-5,-1,1,-2,0,0
1485545701462507,-2,9,-7,0,3,-3,-2,-1
1485545701472003,-2,-8,-3,0,0,-3,1,1
1485545701472003,0,0,0,-1,-2,0,-2,1
